"Freq [GHz]","dB(S(ground_T1,ground_T1)) []"
2,-0.0259407627310963
2.005,-0.0262443692375151
2.01,-0.0265512153363361
2.015,-0.026861358149432
2.02,-0.0271748557692496
2.025,-0.0274917672824219
2.03,-0.0278121527939755
2.035,-0.0281360734522348
2.04,-0.0284635914743494
2.045,-0.0287947701725324
2.05,-0.0291296739810161
2.055,-0.0294683684837451
2.06,-0.0298109204428092
2.065,-0.0301573978277048
2.07,-0.0305078698453675
2.075,-0.0308624069710706
2.08,-0.0312210809801875
2.085,-0.0315839649808565
2.09,-0.0319511334475547
2.095,-0.0323226622556659
2.1,-0.0326986287170094
2.105,-0.0330791116164173
2.11,-0.0334641912493569
2.115,-0.0338539494606752
2.12,-0.0342484696844518
2.125,-0.0346478369850561
2.13,-0.0350521380993974
2.135,-0.0354614614804519
2.14,-0.0358758973420868
2.145,-0.0362955377052355
2.15,-0.0367204764454673
2.155,-0.0371508093420121
2.16,-0.037586634128278
2.165,-0.038028050543916
2.17,-0.0384751603885208
2.175,-0.0389280675769424
2.18,-0.0393868781963966
2.185,-0.0398517005653003
2.19,-0.0403226452940024
2.195,-0.0407998253474224
2.2,-0.0412833561096823
2.205,-0.0417733554508039
2.21,-0.0422699437955665
2.215,-0.0427732441945667
2.22,-0.043283382397601
2.225,-0.0438004869294323
2.23,-0.044324689168059
2.235,-0.0448561234255302
2.24,-0.0453949270314813
2.245,-0.0459412404194127
2.25,-0.0464952072158751
2.255,-0.047056974332643
2.26,-0.0476266920620172
2.265,-0.048204514175338
2.27,-0.0487905980248945
2.275,-0.049385104649297
2.28,-0.0499881988825057
2.285,-0.0506000494666154
2.29,-0.0512208291685944
2.295,-0.0518507149010792
2.3,-0.052489887847448
2.305,-0.0531385335912877
2.31,-0.0537968422504799
2.315,-0.0544650086160725
2.32,-0.055143232296134
2.325,-0.0558317178647934
2.33,-0.0565306750166953
2.335,-0.0572403187270808
2.34,-0.0579608694177354
2.345,-0.058692553129036
2.35,-0.0594356016984019
2.355,-0.0601902529453349
2.36,-0.0609567508634382
2.365,-0.061735345819612
2.37,-0.0625262947607978
2.375,-0.063329861428588
2.38,-0.0641463165820176
2.385,-0.0649759382289093
2.39,-0.0658190118661789
2.395,-0.0666758307294394
2.4,-0.0675466960523584
2.405,-0.0684319173361918
2.41,-0.0693318126299472
2.415,-0.0702467088216499
2.42,-0.0711769419412464
2.425,-0.0721228574756299
2.43,-0.0730848106963723
2.435,-0.0740631670007474
2.44,-0.0750583022666431
2.445,-0.0760706032220299
2.45,-0.0771004678296455
2.455,-0.0781483056876305
2.46,-0.0792145384468622
2.465,-0.0802996002457684
2.47,-0.0814039381634753
2.475,-0.0825280126921657
2.48,-0.0836722982295683
2.485,-0.0848372835925693
2.49,-0.0860234725529574
2.495,-0.0872313843964161
2.5,-0.0884615545059103
2.505,-0.0897145349706455
2.51,-0.0909908952219265
2.515,-0.0922912226972276
2.52,-0.0936161235339391
2.525,-0.0949662232942586
2.53,-0.096342167722863
2.535,-0.0977446235390138
2.54,-0.0991742792648929
2.545,-0.100631846092069
2.55,-0.102118058788061
2.555,-0.103633676645153
2.56,-0.105179484473656
2.565,-0.106756293642027
2.57,-0.108364943166334
2.575,-0.110006300851759
2.58,-0.111681264488928
2.585,-0.1133907631081
2.59,-0.115135758294395
2.595,-0.116917245567416
2.6,-0.118736255828874
2.605,-0.120593856882033
2.61,-0.122491155026998
2.615,-0.124429296736193
2.62,-0.12640947041458
2.625,-0.128432908249513
2.63,-0.130500888155394
2.635,-0.13261473581869
2.64,-0.134775826849169
2.645,-0.13698558904364
2.65,-0.139245504768875
2.655,-0.141557113470872
2.66,-0.143922014318037
2.665,-0.146341868986425
2.67,-0.148818404595716
2.675,-0.151353416805206
2.68,-0.153948773079678
2.685,-0.156606416135815
2.69,-0.159328367580409
2.695,-0.162116731752552
2.7,-0.164973699782796
2.705,-0.167901553883129
2.71,-0.170902671882758
2.715,-0.173979532025642
2.72,-0.177134718046929
2.725,-0.180370924546686
2.73,-0.183690962680754
2.735,-0.187097766189859
2.74,-0.190594397789901
2.745,-0.194184055947892
2.75,-0.197870082069994
2.755,-0.20165596813007
2.76,-0.205545364769365
2.765,-0.20954208990034
2.77,-0.213650137850216
2.775,-0.217873689082601
2.78,-0.222217120538696
2.785,-0.226685016642749
2.79,-0.231282181020196
2.795,-0.236013648980695
2.8,-0.240884700822716
2.805,-0.245900876020828
2.81,-0.251067988362103
2.815,-0.256392142103444
2.82,-0.261879749227873
2.825,-0.2675375478843
2.83,-0.273372622102695
2.835,-0.279392422884398
2.84,-0.285604790776123
2.845,-0.292017980045608
2.85,-0.298640684587477
2.855,-0.305482065699176
2.86,-0.312551781879592
2.865,-0.319860020816705
2.87,-0.327417533745865
2.875,-0.335235672377072
2.88,-0.343326428608004
2.885,-0.351702477259899
2.89,-0.360377222095783
2.895,-0.369364845405296
2.9,-0.378680361467558
2.905,-0.388339674233828
2.91,-0.398359639604941
2.915,-0.408758132715506
2.92,-0.419554120677662
2.925,-0.430767741282609
2.93,-0.442420388208263
2.935,-0.454534803337269
2.94,-0.467135176851516
2.945,-0.480247255838222
2.95,-0.49389846221922
2.955,-0.508118020900495
2.96,-0.52293709913394
2.965,-0.538388958189347
2.97,-0.554509118552896
2.975,-0.571335540000367
2.98,-0.588908818040916
2.985,-0.607272398392189
2.99,-0.626472811332221
2.995,-0.646559927980371
3,-0.667587240791307
