"Freq [GHz]","dB(S(ground_T1,ground_T1)) []"
2,-0.0156373592807419
2.005,-0.0157021305785999
2.01,-0.0157673490983805
2.015,-0.0158330174752453
2.02,-0.0158991383902733
2.025,-0.0159657145701546
2.03,-0.0160327487869035
2.035,-0.0161002438575845
2.04,-0.0161682026440206
2.045,-0.0162366280525369
2.05,-0.0163055230336954
2.055,-0.0163748905820353
2.06,-0.0164447337358193
2.065,-0.0165150555767959
2.07,-0.0165858592299675
2.075,-0.0166571478633384
2.08,-0.0167289246877041
2.085,-0.0168011929564315
2.09,-0.0168739559652386
2.095,-0.0169472170519821
2.1,-0.0170209795964629
2.105,-0.0170952470202314
2.11,-0.0171700227863814
2.115,-0.0172453103993771
2.12,-0.0173211134048615
2.125,-0.0173974353894898
2.13,-0.0174742799807548
2.135,-0.0175516508468215
2.14,-0.0176295516963642
2.145,-0.0177079862784177
2.15,-0.0177869583822243
2.155,-0.0178664718370854
2.16,-0.0179465305122254
2.165,-0.0180271383166496
2.17,-0.0181082991990272
2.175,-0.0181900171475527
2.18,-0.0182722961898247
2.185,-0.0183551403927347
2.19,-0.0184385538623586
2.195,-0.0185225407438331
2.2,-0.0186071052212708
2.205,-0.0186922515176483
2.21,-0.0187779838947212
2.215,-0.0188643066529237
2.22,-0.0189512241312846
2.225,-0.0190387407073559
2.23,-0.0191268607971234
2.235,-0.0192155888549363
2.24,-0.0193049293734368
2.245,-0.0193948868834986
2.25,-0.0194854659541603
2.255,-0.0195766711925641
2.26,-0.019668507243912
2.265,-0.0197609787914099
2.27,-0.0198540905562198
2.275,-0.0199478472974146
2.28,-0.0200422538119474
2.285,-0.0201373149346096
2.29,-0.0202330355379938
2.295,-0.0203294205324842
2.3,-0.0204264748662108
2.305,-0.0205242035250337
2.31,-0.0206226115325348
2.315,-0.0207217039499897
2.32,-0.0208214858763682
2.325,-0.0209219624483192
2.33,-0.0210231388401614
2.335,-0.0211250202638962
2.34,-0.0212276119691983
2.345,-0.0213309192434184
2.35,-0.0214349474116039
2.355,-0.0215397018364987
2.36,-0.0216451879185571
2.365,-0.0217514110959737
2.37,-0.0218583768446887
2.375,-0.021966090678415
2.38,-0.022074558148677
2.385,-0.0221837848448147
2.39,-0.0222937763940421
2.395,-0.0224045384614667
2.4,-0.0225160767501326
2.405,-0.0226283970010501
2.41,-0.0227415049932597
2.415,-0.0228554065438561
2.42,-0.0229701075080527
2.425,-0.0230856137792304
2.43,-0.0232019312889801
2.435,-0.0233190660071671
2.44,-0.0234370239419998
2.445,-0.0235558111400759
2.45,-0.0236754336864594
2.455,-0.0237958977047292
2.46,-0.0239172093570726
2.465,-0.0240393748443444
2.47,-0.024162400406133
2.475,-0.0242862923208604
2.48,-0.0244110569058351
2.485,-0.0245367005173507
2.49,-0.0246632295507738
2.495,-0.0247906504406082
2.5,-0.024918969660602
2.505,-0.0250481937238412
2.51,-0.0251783291828254
2.515,-0.0253093826295853
2.52,-0.0254413606957543
2.525,-0.0255742700526955
2.53,-0.025708117411592
2.535,-0.0258429095235398
2.54,-0.0259786531796764
2.545,-0.0261153552112741
2.55,-0.0262530224898567
2.555,-0.0263916619273139
2.56,-0.0265312804760106
2.565,-0.0266718851289122
2.57,-0.0268134829196935
2.575,-0.0269560809228727
2.58,-0.0270996862539185
2.585,-0.0272443060694011
2.59,-0.027389947567087
2.595,-0.0275366179860986
2.6,-0.0276843246070197
2.605,-0.0278330747520547
2.61,-0.0279828757851404
2.615,-0.028133735112096
2.62,-0.0282856601807659
2.625,-0.0284386584811472
2.63,-0.0285927375455458
2.635,-0.0287479049487093
2.64,-0.0289041683079847
2.645,-0.0290615352834628
2.65,-0.0292200135781264
2.655,-0.0293796109380063
2.66,-0.0295403351523314
2.665,-0.029702194053685
2.67,-0.0298651955181687
2.675,-0.0300293474655545
2.68,-0.0301946578594481
2.685,-0.0303611347074524
2.69,-0.0305287860613345
2.695,-0.030697620017187
2.7,-0.0308676447155965
2.705,-0.0310388683418251
2.71,-0.031211299125961
2.715,-0.0313849453431125
2.72,-0.0315598153135701
2.725,-0.0317359174029812
2.73,-0.0319132600225455
2.735,-0.0320918516291739
2.74,-0.0322717007256804
2.745,-0.0324528158609701
2.75,-0.0326352056302114
2.755,-0.0328188786750293
2.76,-0.0330038436836974
2.765,-0.0331901093913178
2.77,-0.0333776845800188
2.775,-0.0335665780791502
2.78,-0.0337567987654672
2.785,-0.0339483555633341
2.79,-0.0341412574449229
2.795,-0.0343355134304067
2.8,-0.0345311325881607
2.805,-0.0347281240349719
2.81,-0.0349264969362298
2.815,-0.035126260506139
2.82,-0.0353274240079283
2.825,-0.0355299967540542
2.83,-0.03573398810641
2.835,-0.035939407476533
2.84,-0.0361462643258286
2.845,-0.0363545681657701
2.85,-0.0365643285581284
2.855,-0.0367755551151703
2.86,-0.0369882574998963
2.865,-0.0372024454262474
2.87,-0.0374181286593256
2.875,-0.037635317015625
2.88,-0.0378540203632459
2.885,-0.0380742486221262
2.89,-0.038296011764266
2.895,-0.0385193198139546
2.9,-0.0387441828479985
2.905,-0.0389706109959571
2.91,-0.0391986144403649
2.915,-0.0394282034169799
2.92,-0.0396593882149973
2.925,-0.0398921791773103
2.93,-0.0401265867007229
2.935,-0.0403626212362044
2.94,-0.0406002932891231
2.945,-0.0408396134194917
2.95,-0.0410805922422032
2.955,-0.041323240427281
2.96,-0.0415675687001142
2.965,-0.0418135878417197
2.97,-0.0420613086889735
2.975,-0.0423107421348719
2.98,-0.0425618991287695
2.985,-0.0428147906766414
2.99,-0.0430694278413304
2.995,-0.0433258217428026
3,-0.0435839835583974
