"Freq [GHz]","dB(S(ground_T1,ground_T1)) []"
2,-0.0182450067136576
2.005,-0.0183433242375099
2.01,-0.0184421311059018
2.015,-0.0185414318584657
2.02,-0.0186412310712148
2.025,-0.0187415333569562
2.03,-0.0188423433657032
2.035,-0.0189436657850743
2.04,-0.0190455053407257
2.045,-0.0191478667967598
2.05,-0.0192507549561542
2.055,-0.0193541746611819
2.06,-0.0194581307938565
2.065,-0.0195626282763446
2.07,-0.0196676720714168
2.075,-0.0197732671828965
2.08,-0.0198794186560856
2.085,-0.0199861315782384
2.09,-0.0200934110789932
2.095,-0.0202012623308515
2.1,-0.0203096905496328
2.105,-0.0204187009949453
2.11,-0.0205282989706526
2.115,-0.020638489825367
2.12,-0.0207492789529161
2.125,-0.020860671792855
2.13,-0.0209726738309359
2.135,-0.021085290599626
2.14,-0.02119852767861
2.145,-0.0213123906953001
2.15,-0.0214268853253664
2.155,-0.021542017293242
2.16,-0.0216577923726823
2.165,-0.0217742163872842
2.17,-0.0218912952110414
2.175,-0.0220090347689018
2.18,-0.022127441037327
2.185,-0.0222465200448662
2.19,-0.022366277872729
2.195,-0.0224867206553852
2.2,-0.0226078545811516
2.205,-0.0227296858928029
2.21,-0.0228522208881956
2.215,-0.0229754659208856
2.22,-0.0230994274007691
2.225,-0.0232241117947356
2.23,-0.0233495256273272
2.235,-0.0234756754814015
2.24,-0.0236025679988408
2.245,-0.0237302098812301
2.25,-0.0238586078905738
2.255,-0.0239877688500278
2.26,-0.0241176996446483
2.265,-0.024248407222127
2.27,-0.0243798985935901
2.275,-0.0245121808343752
2.28,-0.0246452610848507
2.285,-0.0247791465512392
2.29,-0.0249138445064624
2.295,-0.0250493622910245
2.3,-0.0251857073138841
2.305,-0.0253228870533928
2.31,-0.0254609090582104
2.315,-0.0255997809482898
2.32,-0.0257395104158491
2.325,-0.0258801052264115
2.33,-0.026021573219835
2.335,-0.0261639223114071
2.34,-0.0263071604929555
2.345,-0.0264512958339911
2.35,-0.0265963364829052
2.355,-0.0267422906681803
2.36,-0.0268891666996656
2.365,-0.027036972969887
2.37,-0.0271857179553997
2.375,-0.0273354102181987
2.38,-0.0274860584071675
2.385,-0.0276376712595963
2.39,-0.0277902576027558
2.395,-0.0279438263555256
2.4,-0.0280983865300919
2.405,-0.0282539472337228
2.41,-0.0284105176706076
2.415,-0.0285681071437886
2.42,-0.0287267250571576
2.425,-0.0288863809175638
2.43,-0.0290470843370146
2.435,-0.0292088450349615
2.44,-0.0293716728407143
2.445,-0.029535577695978
2.45,-0.0297005696574894
2.455,-0.0298666588998184
2.46,-0.0300338557182909
2.465,-0.030202170532082
2.47,-0.0303716138874648
2.475,-0.0305421964612393
2.48,-0.0307139290643673
2.485,-0.0308868226457802
2.49,-0.031060888296453
2.495,-0.0312361372536747
2.5,-0.0314125809055961
2.505,-0.0315902307960659
2.51,-0.0317690986297297
2.515,-0.031949196277495
2.52,-0.0321305357823111
2.525,-0.0323131293653424
2.53,-0.0324969894325459
2.535,-0.0326821285816984
2.54,-0.0328685596098903
2.545,-0.0330562955215447
2.55,-0.0332453495370209
2.555,-0.0334357351017935
2.56,-0.0336274658963462
2.565,-0.0338205558467528
2.57,-0.0340150191360866
2.575,-0.0342108702166854
2.58,-0.0344081238233414
2.585,-0.0346067949875676
2.59,-0.0348068990529606
2.595,-0.0350084516918389
2.6,-0.0352114689232096
2.605,-0.0354159671322606
2.61,-0.0356219630914722
2.615,-0.0358294739835597
2.62,-0.0360385174263904
2.625,-0.0362491115001187
2.63,-0.0364612747767288
2.635,-0.0366750263522786
2.64,-0.0368903858821078
2.645,-0.0371073736193399
2.65,-0.0373260104570434
2.655,-0.0375463179744741
2.66,-0.0377683184878011
2.665,-0.0379920351059306
2.67,-0.0382174917919157
2.675,-0.0384447134306857
2.68,-0.0386737259038224
2.685,-0.0389045561722227
2.69,-0.0391372323676728
2.695,-0.0393717838943922
2.7,-0.0396082415418537
2.705,-0.0398466376103115
2.71,-0.0400870060507469
2.715,-0.0403293826210795
2.72,-0.0405738050609577
2.725,-0.040820313287582
2.73,-0.0410689496155966
2.735,-0.0413197590044248
2.74,-0.0415727893370861
2.745,-0.0418280917351263
2.75,-0.0420857209150932
2.755,-0.0423457355929492
2.76,-0.0426081989439244
2.765,-0.0428731791266386
2.77,-0.0431407498819415
2.775,-0.0434109912188825
2.78,-0.0436839902025546
2.785,-0.0439598418614234
2.79,-0.0442386502352684
2.795,-0.0445205295890872
2.8,-0.0448056058236208
2.805,-0.045094018119623
2.81,-0.0453859208610168
2.815,-0.0456814858921882
2.82,-0.0459809051770814
2.825,-0.0462843939437343
2.83,-0.0465921944176735
2.835,-0.0469045802731498
2.84,-0.0472218619636095
2.845,-0.0475443931346311
2.85,-0.0478725783767525
2.855,-0.0482068826461472
2.86,-0.0485478427738792
2.865,-0.0488960816069766
2.87,-0.0492523254879092
2.875,-0.0496174259985276
2.88,-0.0499923871918272
2.885,-0.0503783999415226
2.89,-0.0507768856006598
2.895,-0.0511895519431913
2.9,-0.0516184654656781
2.905,-0.0520661456988907
2.91,-0.0525356894481827
2.915,-0.053030936197188
2.92,-0.0535566908201018
2.925,-0.0541190271255695
2.93,-0.054725707006891
2.935,-0.0553867674061282
2.94,-0.0561153547572266
2.945,-0.056928930556945
2.95,-0.057851043375617
2.955,-0.058913981301959
2.96,-0.0601628181935217
2.965,-0.0616617052465036
2.97,-0.0635038323684448
2.975,-0.0658274311388304
2.98,-0.0688416276563699
2.985,-0.0728675340188408
2.99,-0.0783988726894144
2.995,-0.0861692227683138
3,-0.0971278026713781
