"Freq [GHz]","dB(S(ground_T1,ground_T1)) []"
2,-0.0146055198499804
2.005,-0.0146818975062176
2.01,-0.0147585434025728
2.015,-0.014835479464198
2.02,-0.0149127273942782
2.025,-0.0149903086764504
2.03,-0.015068244577205
2.035,-0.0151465561482977
2.04,-0.0152252642291526
2.045,-0.0153043894492751
2.05,-0.0153839522306447
2.055,-0.0154639727901356
2.06,-0.0155444711419201
2.065,-0.0156254670998913
2.07,-0.0157069802800819
2.075,-0.0157890301030958
2.08,-0.0158716357965498
2.085,-0.0159548163975112
2.09,-0.01603859075498
2.095,-0.0161229775323364
2.1,-0.0162079952098479
2.105,-0.0162936620871687
2.11,-0.0163799962858528
2.115,-0.0164670157518983
2.12,-0.0165547382583112
2.125,-0.0166431814076796
2.13,-0.0167323626347728
2.135,-0.0168222992091865
2.14,-0.0169130082379824
2.145,-0.0170045066683715
2.15,-0.0170968112904314
2.155,-0.0171899387398542
2.16,-0.0172839055006938
2.165,-0.0173787279082097
2.17,-0.017474422151696
2.175,-0.0175710042773572
2.18,-0.0176684901912375
2.185,-0.0177668956621883
2.19,-0.017866236324869
2.195,-0.0179665276827917
2.2,-0.0180677851114319
2.205,-0.0181700238613649
2.21,-0.0182732590614677
2.215,-0.0183775057221621
2.22,-0.0184827787387216
2.225,-0.0185890928946412
2.23,-0.0186964628650409
2.235,-0.0188049032201482
2.24,-0.0189144284288554
2.245,-0.0190250528623137
2.25,-0.0191367907976118
2.255,-0.019249656421528
2.26,-0.0193636638343423
2.265,-0.0194788270537323
2.27,-0.0195951600187344
2.275,-0.019712676593808
2.28,-0.0198313905729637
2.285,-0.0199513156839681
2.29,-0.0200724655926619
2.295,-0.0201948539073478
2.3,-0.0203184941832884
2.305,-0.0204433999272731
2.31,-0.0205695846023235
2.315,-0.0206970616324528
2.32,-0.0208258444075792
2.325,-0.0209559462885128
2.33,-0.0210873806120696
2.335,-0.0212201606962999
2.34,-0.021354299845821
2.345,-0.0214898113572947
2.35,-0.0216267085250087
2.355,-0.0217650046466058
2.36,-0.0219047130289231
2.365,-0.0220458469939923
2.37,-0.0221884198851557
2.375,-0.0223324450733602
2.38,-0.0224779359635557
2.385,-0.0226249060012772
2.39,-0.0227733686793895
2.395,-0.0229233375449565
2.4,-0.02307482620632
2.405,-0.0232278483403165
2.41,-0.0233824176996902
2.415,-0.0235385481206699
2.42,-0.0236962535307406
2.425,-0.0238555479566124
2.43,-0.024016445532363
2.435,-0.0241789605078014
2.44,-0.0243431072570367
2.445,-0.0245089002872392
2.45,-0.0246763542476524
2.455,-0.024845483938796
2.46,-0.0250163043219201
2.465,-0.0251888305286887
2.47,-0.0253630778711097
2.475,-0.0255390618517093
2.48,-0.0257167981739626
2.485,-0.0258963027530029
2.49,-0.0260775917265732
2.495,-0.0262606814662828
2.5,-0.0264455885891373
2.505,-0.0266323299693567
2.51,-0.0268209227505128
2.515,-0.0270113843579539
2.52,-0.0272037325115643
2.525,-0.0273979852388469
2.53,-0.0275941608883392
2.535,-0.0277922781433539
2.54,-0.0279923560361337
2.545,-0.0281944139622922
2.55,-0.028398471695686
2.555,-0.0286045494036489
2.56,-0.0288126676626163
2.565,-0.0290228474741632
2.57,-0.0292351102814649
2.575,-0.0294494779861584
2.58,-0.0296659729656846
2.585,-0.0298846180910352
2.59,-0.0301054367450067
2.595,-0.0303284528408909
2.6,-0.0305536908416953
2.605,-0.0307811757798249
2.61,-0.0310109332773184
2.615,-0.0312429895665868
2.62,-0.0314773715117192
2.625,-0.0317141066303244
2.63,-0.0319532231159747
2.635,-0.0321947498612267
2.64,-0.0324387164812545
2.645,-0.032685153338102
2.65,-0.0329340915655895
2.655,-0.0331855630948663
2.66,-0.0334396006806552
2.665,-0.0336962379281857
2.67,-0.0339555093208468
2.675,-0.0342174502485711
2.68,-0.034482097036998
2.685,-0.0347494869773761
2.69,-0.0350196583573066
2.695,-0.03529265049229
2.7,-0.035568503758106
2.705,-0.0358472596240941
2.71,-0.036128960687302
2.715,-0.036413650707569
2.72,-0.0367013746435429
2.725,-0.0369921786896724
2.73,-0.0372861103142161
2.735,-0.0375832182982374
2.74,-0.0378835527757107
2.745,-0.0381871652746624
2.75,-0.0384941087594772
2.755,-0.0388044376743096
2.76,-0.0391182079877141
2.765,-0.0394354772384703
2.77,-0.0397563045826725
2.775,-0.0400807508420934
2.78,-0.0404088785538824
2.785,-0.0407407520216167
2.79,-0.0410764373677731
2.795,-0.0414160025876208
2.8,-0.0417595176046019
2.805,-0.0421070543272576
2.81,-0.0424586867076912
2.815,-0.0428144908016836
2.82,-0.0431745448304532
2.825,-0.0435389292441309
2.83,-0.0439077267869973
2.835,-0.0442810225645381
2.84,-0.0446589041123639
2.845,-0.0450414614670563
2.85,-0.0454287872389834
2.855,-0.0458209766871589
2.86,-0.0462181277962066
2.865,-0.0466203413554654
2.87,-0.0470277210403355
2.875,-0.0474403734958952
2.88,-0.0478584084229025
2.885,-0.0482819386661969
2.89,-0.0487110803056066
2.895,-0.0491459527494569
2.9,-0.049586678830681
2.905,-0.0500333849057225
2.91,-0.0504862009561856
2.915,-0.0509452606934458
2.92,-0.0514107016662041
2.925,-0.0518826653711264
2.93,-0.052361297366667
2.935,-0.0528467473901355
2.94,-0.053339169478138
2.945,-0.0538387220904911
2.95,-0.054345568237689
2.955,-0.05485987561207
2.96,-0.0553818167227636
2.965,-0.0559115690345567
2.97,-0.056449315110776
2.975,-0.0569952427603402
2.98,-0.057549545189079
2.985,-0.0581124211554717
2.99,-0.0586840751309258
2.995,-0.0592647174647659
3,-0.0598545645540406
