"Freq [GHz]","dB(S(ground_T1,ground_T1)) []"
2,-0.0440872773321721
2.005,-0.044700313193567
2.01,-0.045320916878003
2.015,-0.0459491450536837
2.02,-0.0465850572668542
2.025,-0.0472287159815417
2.03,-0.0478801866204307
2.035,-0.0485395376068614
2.04,-0.049206840408012
2.045,-0.0498821695792726
2.05,-0.050565602809848
2.055,-0.0512572209696005
2.06,-0.0519571081571913
2.065,-0.0526653517495541
2.07,-0.0533820424526644
2.075,-0.0541072743537509
2.08,-0.0548411449748862
2.085,-0.0555837553280455
2.09,-0.0563352099716602
2.095,-0.057095617068705
2.1,-0.0578650884463502
2.105,-0.0586437396572341
2.11,-0.0594316900424036
2.115,-0.0602290627959579
2.12,-0.0610359850314376
2.125,-0.0618525878500367
2.13,-0.0626790064106604
2.135,-0.0635153800018993
2.14,-0.064361852115967
2.145,-0.0652185705246714
2.15,-0.0660856873574598
2.155,-0.0669633591816269
2.16,-0.0678517470847366
2.165,-0.0687510167593152
2.17,-0.0696613385899142
2.175,-0.0705828877426021
2.18,-0.0715158442569537
2.185,-0.0724603931406274
2.19,-0.0734167244666155
2.195,-0.0743850334732528
2.2,-0.0753655206670688
2.205,-0.0763583919285897
2.21,-0.0773638586211598
2.215,-0.0783821377029216
2.22,-0.0794134518420551
2.225,-0.0804580295353337
2.23,-0.0815161052302091
2.235,-0.0825879194504419
2.24,-0.0836737189254858
2.245,-0.0847737567237124
2.25,-0.08588829238961
2.255,-0.0870175920851344
2.26,-0.0881619287353209
2.265,-0.0893215821783346
2.27,-0.0904968393201093
2.275,-0.09168799429375
2.28,-0.0928953486238791
2.285,-0.0941192113960779
2.29,-0.0953598994316714
2.295,-0.0966177374679836
2.3,-0.097893058344345
2.305,-0.0991862031940086
2.31,-0.10049752164224
2.315,-0.101827372010789
2.32,-0.103176121529012
2.325,-0.104544146551907
2.33,-0.10593183278527
2.335,-0.107339575518381
2.34,-0.108767779864342
2.345,-0.11021686100853
2.35,-0.111687244465398
2.355,-0.113179366343972
2.36,-0.114693673622409
2.365,-0.116230624431977
2.37,-0.117790688350838
2.375,-0.119374346708001
2.38,-0.120982092897945
2.385,-0.122614432706233
2.39,-0.124271884646704
2.395,-0.125954980310566
2.4,-0.12766426472806
2.405,-0.129400296743062
2.41,-0.131163649401273
2.415,-0.132954910352517
2.42,-0.134774682267747
2.425,-0.136623583271414
2.43,-0.138502247389827
2.435,-0.140411325016164
2.44,-0.142351483392909
2.445,-0.144323407112418
2.45,-0.146327798636409
2.455,-0.148365378835191
2.46,-0.15043688754751
2.465,-0.152543084161887
2.47,-0.154684748220395
2.475,-0.15686268004587
2.48,-0.159077701393568
2.485,-0.161330656128366
2.49,-0.163622410928637
2.495,-0.165953856017953
2.5,-0.168325905925897
2.505,-0.170739500279259
2.51,-0.173195604624969
2.515,-0.175695211286225
2.52,-0.178239340253257
2.525,-0.180829040110335
2.53,-0.183465389000653
2.535,-0.18614949563075
2.54,-0.188882500316365
2.545,-0.191665576071505
2.55,-0.194499929742762
2.555,-0.197386803190931
2.56,-0.200327474522084
2.565,-0.203323259370382
2.57,-0.206375512234993
2.575,-0.209485627873608
2.58,-0.212655042755174
2.585,-0.215885236574564
2.59,-0.219177733832058
2.595,-0.222534105480637
2.6,-0.225955970644239
2.605,-0.229444998410252
2.61,-0.233002909699741
2.615,-0.236631479218957
2.62,-0.240332537496001
2.625,-0.24410797300654
2.63,-0.24795973439278
2.635,-0.251889832780025
2.64,-0.255900344195401
2.645,-0.259993412093508
2.65,-0.264171249994015
2.655,-0.268436144236437
2.66,-0.272790456857538
2.665,-0.277236628597178
2.67,-0.28177718203853
2.675,-0.286414724888994
2.68,-0.291151953408401
2.685,-0.295991655991329
2.69,-0.300936716910795
2.695,-0.305990120230786
2.7,-0.311154953895547
2.705,-0.316434414003793
2.71,-0.321831809276482
2.715,-0.327350565727064
2.72,-0.332994231543626
2.725,-0.338766482192674
2.73,-0.344671125754728
2.735,-0.350712108502423
2.74,-0.356893520732151
2.745,-0.363219602860794
2.75,-0.369694751799604
2.755,-0.376323527617709
2.76,-0.383110660508285
2.765,-0.390061058070894
2.77,-0.397179812924075
2.775,-0.404472210662706
2.78,-0.411943738175317
2.785,-0.419600092336958
2.79,-0.427447189093833
2.795,-0.435491172956477
2.8,-0.4437384269187
2.805,-0.452195582820171
2.81,-0.460869532170957
2.815,-0.469767437456869
2.82,-0.478896743944991
2.825,-0.488265192009141
2.83,-0.497880829995545
2.835,-0.507752027649342
2.84,-0.517887490122867
2.845,-0.528296272586972
2.85,-0.538987795466827
2.855,-0.549971860323827
2.86,-0.56125866640519
2.865,-0.572858827882767
2.87,-0.584783391802488
2.875,-0.597043856765339
2.88,-0.609652192360385
2.885,-0.62262085936957
2.89,-0.635962830763179
2.895,-0.649691613503544
2.9,-0.663821271173221
2.905,-0.678366447442223
2.91,-0.693342390386435
2.915,-0.7087649776673
2.92,-0.724650742579597
2.925,-0.741016900970926
2.93,-0.757881379032472
2.935,-0.775262841956197
2.94,-0.793180723448379
2.945,-0.81165525608356
2.95,-0.830707502476282
2.955,-0.850359387240513
2.96,-0.870633729698117
2.965,-0.891554277288336
2.97,-0.913145739619546
2.975,-0.935433823092831
2.98,-0.958445266013765
2.985,-0.982207874094208
2.99,-1.00675055623007
2.995,-1.0321033604231
3,-1.05829750969562
