"Freq [GHz]","dB(S(ground_T1,ground_T1)) []"
2,-0.0358982789369436
2.005,-0.0365621094192028
2.01,-0.0372408378922976
2.015,-0.0379350044057921
2.02,-0.0386451675511121
2.025,-0.0393719054031518
2.03,-0.0401158165135838
2.035,-0.0408775209591842
2.04,-0.0416576614486872
2.045,-0.0424569044920076
2.05,-0.0432759416358699
2.055,-0.044115490770219
2.06,-0.0449762975101314
2.065,-0.0458591366582654
2.07,-0.0467648137532552
2.075,-0.0476941667099255
2.08,-0.048648067557579
2.085,-0.049627424283173
2.09,-0.0506331827866212
2.095,-0.0516663289561477
2.1,-0.0527278908721819
2.105,-0.0538189411489154
2.11,-0.0549405994234998
2.115,-0.0560940350035654
2.12,-0.0572804696846556
2.125,-0.0585011807501289
2.13,-0.0597575041671403
2.135,-0.0610508379934305
2.14,-0.062382646010895
2.145,-0.0637544616033672
2.15,-0.0651678918973574
2.155,-0.0666246221863806
2.16,-0.0681264206611094
2.165,-0.0696751434696512
2.17,-0.0712727401344406
2.175,-0.0729212593546312
2.18,-0.0746228552254637
2.185,-0.0763797939090369
2.19,-0.0781944607941364
2.195,-0.0800693681862603
2.2,-0.0820071635729474
2.205,-0.0840106385138128
2.21,-0.0860827382095074
2.215,-0.0882265718091398
2.22,-0.0904454235215546
2.225,-0.092742764602468
2.23,-0.0951222662966892
2.235,-0.097587813822789
2.24,-0.100143521496599
2.245,-0.102793749099973
2.25,-0.105543119612484
2.255,-0.108396538436378
2.26,-0.11135921425898
2.265,-0.114436681712777
2.27,-0.117634826010768
2.275,-0.120959909754843
2.28,-0.124418602137042
2.285,-0.128018010778836
2.29,-0.131765716481887
2.295,-0.135669811195749
2.3,-0.139738939544271
2.305,-0.143982344293321
2.31,-0.148409916189078
2.315,-0.153032248648828
2.32,-0.157860697846281
2.325,-0.162907448801796
2.33,-0.168185588165842
2.335,-0.173709184473197
2.34,-0.179493376747298
2.345,-0.185554472451035
2.35,-0.191910055914492
2.355,-0.198579108524417
2.36,-0.205582142138064
2.365,-0.212941347389212
2.37,-0.22068075879148
2.375,-0.22882643881891
2.38,-0.237406683462869
2.385,-0.246452252135269
2.39,-0.25599662522036
2.395,-0.266076293082127
2.4,-0.276731080924608
2.405,-0.288004514594836
2.41,-0.299944233231173
2.415,-0.312602455617426
2.42,-0.326036508233011
2.425,-0.340309424325588
2.43,-0.355490624916626
2.435,-0.371656694532107
2.44,-0.388892266691678
2.445,-0.40729103686469
2.45,-0.426956923802678
2.455,-0.448005403997326
2.46,-0.470565048629971
2.465,-0.494779297943586
2.47,-0.520808514692842
2.475,-0.548832366473693
2.48,-0.579052596625535
2.485,-0.611696255440519
2.49,-0.647019478108126
2.495,-0.685311913796435
2.5,-0.726901932307712
2.505,-0.772162761825563
2.51,-0.821519744622287
2.515,-0.875458938758284
2.52,-0.93453734471545
2.525,-0.999395098995017
2.53,-1.07077005503973
2.535,-1.14951526927288
2.54,-1.23662003146782
2.545,-1.33323523027636
2.55,-1.44070403448137
2.555,-1.56059910862877
2.56,-1.69476788151178
2.565,-1.84538776533679
2.57,-2.01503370657032
2.575,-2.20676107040386
2.58,-2.42420766820195
2.585,-2.67171980239273
2.59,-2.95450863005269
2.595,-3.27884508178898
2.6,-3.65230420090412
2.605,-4.08407323882787
2.61,-4.58534196396204
2.615,-5.16979681228334
2.62,-5.85423624862593
2.625,-6.65929044716495
2.63,-7.61008864997813
2.635,-8.73621920698018
2.64,-10.0686078391873
2.645,-11.6250898583764
2.65,-13.358141463887
2.655,-15.0037762372348
2.66,-15.8847514021086
2.665,-15.3820763006652
2.67,-13.8922747044809
2.675,-12.1740111483267
2.68,-10.5899129629663
2.685,-9.22451077030195
2.69,-8.06933902664029
2.695,-7.09459054750961
2.7,-6.26981023803692
2.705,-5.56877400179147
2.71,-4.96995374687414
2.715,-4.45590096987414
2.72,-4.0124846054113
2.725,-3.62822060105413
2.73,-3.2937312271268
2.735,-3.00132009168447
2.74,-2.74463967505782
2.745,-2.51843045359092
2.75,-2.31831504646346
2.755,-2.1406347873563
2.76,-1.98231922287344
2.765,-1.84078135153905
2.77,-1.71383312310037
2.775,-1.59961698167086
2.78,-1.4965501815314
2.785,-1.40327931921961
2.79,-1.31864307168597
2.795,-1.24164155135931
2.8,-1.17141101605561
2.805,-1.10720292735732
2.81,-1.0483665520202
2.815,-0.994334459565591
2.82,-0.944610394893325
2.825,-0.898759104688408
2.83,-0.8563977761215
2.835,-0.81718881014279
2.84,-0.780833702873186
2.845,-0.747067849811887
2.85,-0.715656120848393
2.855,-0.686389080998076
2.86,-0.65907975364211
2.865,-0.633560840848885
2.87,-0.60968232988133
2.875,-0.587309426886215
2.88,-0.566320768522622
2.885,-0.546606870320756
2.89,-0.528068777192949
2.895,-0.510616887005727
2.9,-0.494169922674428
2.905,-0.478654032029312
2.91,-0.464001997860986
2.915,-0.450152543194302
2.92,-0.437049719054173
2.925,-0.424642363847364
2.93,-0.412883625051847
2.935,-0.401730535228777
2.94,-0.391143635492371
2.945,-0.381086640523222
2.95,-0.371526140018612
2.955,-0.362431332161707
2.96,-0.353773785279599
2.965,-0.345527224363121
2.97,-0.337667339552876
2.975,-0.330171614066619
2.98,-0.32301916936234
2.985,-0.316190625606734
2.99,-0.309667975756759
2.995,-0.303434471768074
3,-0.297474521622974
