"Freq [GHz]","dB(S(ground_T1,ground_T1)) []"
2,-0.0139550901425562
2.005,-0.0140032206730015
2.01,-0.0140516378361002
2.015,-0.0141003517360571
2.02,-0.0141493723756837
2.025,-0.0141987096573682
2.03,-0.0142483733840282
2.035,-0.0142983732600728
2.04,-0.0143487188923673
2.045,-0.0143994197912099
2.05,-0.0144504853712976
2.055,-0.0145019249527002
2.06,-0.014553747761859
2.065,-0.0146059629325581
2.07,-0.0146585795069184
2.075,-0.0147116064364022
2.08,-0.014765052582807
2.085,-0.0148189267192818
2.09,-0.0148732375313367
2.095,-0.0149279936178639
2.1,-0.0149832034921652
2.105,-0.0150388755829862
2.11,-0.0150950182355605
2.115,-0.0151516397126558
2.12,-0.0152087481956285
2.125,-0.0152663517854933
2.13,-0.0153244585039847
2.135,-0.0153830762946583
2.14,-0.0154422130239604
2.145,-0.0155018764823353
2.15,-0.0155620743853371
2.155,-0.0156228143747469
2.16,-0.0156841040196926
2.165,-0.0157459508177972
2.17,-0.0158083621963251
2.175,-0.0158713455133448
2.18,-0.015934908058896
2.185,-0.0159990570561738
2.19,-0.0160637996627263
2.195,-0.0161291429716592
2.2,-0.0161950940128621
2.205,-0.0162616597542299
2.21,-0.0163288471029166
2.215,-0.0163966629065975
2.22,-0.0164651139547382
2.225,-0.01653420697988
2.23,-0.0166039486589524
2.235,-0.016674345614572
2.24,-0.0167454044164066
2.245,-0.0168171315824837
2.25,-0.016889533580595
2.255,-0.0169626168296484
2.26,-0.0170363877010805
2.265,-0.0171108525202616
2.27,-0.0171860175679494
2.275,-0.0172618890817158
2.28,-0.0173384732574261
2.285,-0.0174157762507319
2.29,-0.0174938041785693
2.295,-0.0175725631206965
2.3,-0.0176520591212351
2.305,-0.0177322981902344
2.31,-0.0178132863052661
2.315,-0.0178950294130347
2.32,-0.0179775334310024
2.325,-0.0180608042490506
2.33,-0.0181448477311581
2.335,-0.0182296697170898
2.34,-0.0183152760241337
2.345,-0.0184016724488412
2.35,-0.0184888647688036
2.355,-0.0185768587444488
2.36,-0.018665660120859
2.365,-0.0187552746296283
2.37,-0.0188457079907382
2.375,-0.0189369659144577
2.38,-0.0190290541032737
2.385,-0.019121978253855
2.39,-0.0192157440590347
2.395,-0.0193103572098318
2.4,-0.0194058233974964
2.405,-0.0195021483155927
2.41,-0.0195993376620951
2.415,-0.0196973971415494
2.42,-0.0197963324672263
2.425,-0.0198961493633347
2.43,-0.0199968535672662
2.435,-0.0200984508318537
2.44,-0.0202009469276965
2.445,-0.0203043476454971
2.45,-0.0204086587984343
2.455,-0.0205138862245882
2.46,-0.0206200357893913
2.465,-0.0207271133881192
2.47,-0.0208351249484146
2.475,-0.0209440764328753
2.48,-0.021053973841649
2.485,-0.0211648232150796
2.49,-0.0212766306364258
2.495,-0.0213894022345665
2.5,-0.0215031441867999
2.505,-0.0216178627216565
2.51,-0.0217335641217733
2.515,-0.0218502547267918
2.52,-0.0219679409363471
2.525,-0.0220866292130416
2.53,-0.0222063260855204
2.535,-0.0223270381515686
2.54,-0.0224487720812731
2.545,-0.0225715346202145
2.55,-0.0226953325927359
2.555,-0.022820172905246
2.56,-0.0229460625495803
2.565,-0.0230730086064285
2.57,-0.0232010182487927
2.575,-0.0233300987455333
2.58,-0.0234602574649453
2.585,-0.0235915018784056
2.59,-0.0237238395640827
2.595,-0.0238572782106986
2.6,-0.0239918256213663
2.605,-0.0241274897174641
2.61,-0.0242642785426011
2.615,-0.0244022002666449
2.62,-0.0245412631897933
2.625,-0.0246814757467346
2.63,-0.0248228465108759
2.635,-0.0249653841986216
2.64,-0.0251090976737605
2.645,-0.0252539959518799
2.65,-0.0254000882048916
2.655,-0.0255473837656042
2.66,-0.0256958921323941
2.665,-0.0258456229739468
2.67,-0.025996586134072
2.675,-0.0261487916366001
2.68,-0.0263022496903785
2.685,-0.0264569706943093
2.69,-0.0266129652425327
2.695,-0.0267702441296415
2.7,-0.0269288183560121
2.705,-0.0270886991332259
2.71,-0.0272498978895622
2.715,-0.0274124262756092
2.72,-0.0275762961699604
2.725,-0.0277415196849779
2.73,-0.0279081091727243
2.735,-0.0280760772309089
2.74,-0.0282454367090035
2.745,-0.0284162007144199
2.75,-0.0285883826188188
2.755,-0.0287619960645126
2.76,-0.0289370549709747
2.765,-0.0291135735414692
2.77,-0.0292915662697842
2.775,-0.0294710479470966
2.78,-0.0296520336689332
2.785,-0.029834538842257
2.79,-0.0300185791926966
2.795,-0.030204170771858
2.8,-0.030391329964805
2.805,-0.0305800734976368
2.81,-0.0307704184452142
2.815,-0.0309623822390024
2.82,-0.0311559826750744
2.825,-0.0313512379222213
2.83,-0.0315481665302215
2.835,-0.0317467874382579
2.84,-0.0319471199834606
2.845,-0.0321491839096116
2.85,-0.0323529993759958
2.855,-0.0325585869664157
2.86,-0.0327659676983381
2.865,-0.032975163032226
2.87,-0.0331861948810205
2.875,-0.0333990856197797
2.88,-0.0336138580955039
2.885,-0.0338305356371191
2.89,-0.0340491420656335
2.895,-0.034269701704482
2.9,-0.0344922393900379
2.905,-0.0347167804823214
2.91,-0.0349433508758874
2.915,-0.0351719770109
2.92,-0.0354026858844148
2.925,-0.0356355050618422
2.93,-0.0358704626886356
2.935,-0.0361075875021461
2.94,-0.0363469088437386
2.945,-0.036588456671067
2.95,-0.0368322615706015
2.955,-0.0370783547703675
2.96,-0.037326768152906
2.965,-0.0375775342684619
2.97,-0.037830686348407
2.975,-0.0380862583189073
2.98,-0.0383442848148198
2.985,-0.0386048011938473
2.99,-0.0388678435509313
2.995,-0.0391334487329184
3,-0.039401654353463
