"Freq [GHz]","dB(S(ground_T1,ground_T1)) []"
2,-0.0310388647139986
2.005,-0.0314208029839587
2.01,-0.0318108656637595
2.015,-0.0322090780807096
2.02,-0.0326154687532181
2.025,-0.0330300694546347
2.03,-0.0334529152794521
2.035,-0.033884044711981
2.04,-0.0343234996975489
2.045,-0.0347713257163186
2.05,-0.0352275718598129
2.055,-0.0356922909102382
2.06,-0.0361655394226778
2.065,-0.0366473778103124
2.07,-0.0371378704326829
2.075,-0.0376370856871858
2.08,-0.0381450961038616
2.085,-0.0386619784436092
2.09,-0.0391878137999582
2.095,-0.0397226877045032
2.1,-0.0402666902361423
2.105,-0.0408199161342785
2.11,-0.041382464916097
2.115,-0.0419544409980808
2.12,-0.0425359538219365
2.125,-0.043127117985081
2.13,-0.0437280533758546
2.135,-0.0443388853136721
2.14,-0.0449597446942513
2.145,-0.0455907681401681
2.15,-0.046232098156918
2.155,-0.0468838832946884
2.16,-0.0475462783160949
2.165,-0.0482194443701084
2.17,-0.0489035491724012
2.175,-0.0495987671924146
2.18,-0.050305279847363
2.185,-0.0510232757035211
2.19,-0.0517529506850473
2.195,-0.0524945082906556
2.2,-0.053248159818518
2.205,-0.0540141245996745
2.21,-0.0547926302403459
2.215,-0.0555839128735359
2.22,-0.0563882174202922
2.225,-0.0572057978610878
2.23,-0.0580369175176976
2.235,-0.0588818493461122
2.24,-0.059740876240894
2.245,-0.0606142913515491
2.25,-0.0615023984114144
2.255,-0.0624055120796336
2.26,-0.063323958296815
2.265,-0.0642580746550084
2.27,-0.0652082107826251
2.275,-0.0661747287450413
2.28,-0.0671580034615728
2.285,-0.0681584231396135
2.29,-0.0691763897267303
2.295,-0.0702123193815956
2.3,-0.0712666429646323
2.305,-0.0723398065493385
2.31,-0.0734322719552976
2.315,-0.0745445173039098
2.32,-0.0756770375980189
2.325,-0.0768303453265413
2.33,-0.0780049710954448
2.335,-0.0792014642863019
2.34,-0.0804203937438863
2.345,-0.0816623484942781
2.35,-0.082927938495032
2.355,-0.0842177954190785
2.36,-0.0855325734741267
2.365,-0.0868729502594327
2.37,-0.0882396276618868
2.375,-0.0896333327935473
2.38,-0.0910548189728565
2.385,-0.09250486675184
2.39,-0.0939842849918905
2.395,-0.0954939119907158
2.4,-0.0970346166633489
2.405,-0.0986072997801903
2.41,-0.100212895265319
2.415,-0.101852371558466
2.42,-0.103526733044282
2.425,-0.105237021552787
2.43,-0.106984317935092
2.435,-0.108769743718817
2.44,-0.110594462847883
2.445,-0.112459683511673
2.45,-0.114366660068908
2.455,-0.116316695071945
2.46,-0.11831114139758
2.465,-0.120351404490901
2.47,-0.122438944729092
2.475,-0.124575279912765
2.48,-0.126761987892651
2.485,-0.129000709340353
2.49,-0.131293150672238
2.495,-0.133641087136313
2.5,-0.136046366072663
2.505,-0.138510910358764
2.51,-0.141036722051787
2.515,-0.14362588624104
2.52,-0.146280575124546
2.525,-0.149003052324881
2.53,-0.151795677460554
2.535,-0.154660910990466
2.54,-0.157601319350319
2.545,-0.160619580401336
2.55,-0.163718489213277
2.555,-0.1669009642055
2.56,-0.170170053671624
2.565,-0.173528942715565
2.57,-0.176980960628867
2.575,-0.180529588741745
2.58,-0.18417846878298
2.585,-0.187931411786695
2.59,-0.191792407587273
2.595,-0.195765634947178
2.6,-0.199855472366322
2.605,-0.204066509625755
2.61,-0.208403560123126
2.615,-0.212871674062392
2.62,-0.217476152565812
2.625,-0.222222562782366
2.63,-0.227116754073388
2.635,-0.232164875363668
2.64,-0.237373393754288
2.645,-0.242749114502477
2.65,-0.248299202483572
2.655,-0.254031205261086
2.66,-0.259953077902865
2.665,-0.266073209694655
2.67,-0.272400452916952
2.675,-0.278944153867458
2.68,-0.285714186329305
2.685,-0.292720987705317
2.69,-0.299975598060656
2.695,-0.307489702340926
2.7,-0.315275676060117
2.705,-0.323346634783319
2.71,-0.33171648776303
2.715,-0.340399996125744
2.72,-0.34941283604777
2.725,-0.358771667406309
2.73,-0.368494208444605
2.735,-0.378599317048892
2.74,-0.389107079300952
2.745,-0.400038906044015
2.75,-0.411417638282871
2.755,-0.423267662332161
2.76,-0.435615035731622
2.765,-0.448487625064898
2.77,-0.461915256951086
2.775,-0.475929883627723
2.78,-0.49056576471238
2.785,-0.50585966692023
2.79,-0.521851083729822
2.795,-0.538582477232113
2.8,-0.55609954467257
2.805,-0.574451512507078
2.81,-0.593691461144869
2.815,-0.613876683950938
2.82,-0.63506908453351
2.825,-0.657335616856111
2.83,-0.680748773297532
2.835,-0.705387126445753
2.84,-0.731335931164952
2.845,-0.758687794330348
2.85,-0.78754342059783
2.855,-0.818012443679769
2.86,-0.850214353853085
2.865,-0.884279533849796
2.87,-0.920350416896047
2.875,-0.958582782496928
2.88,-0.999147207637322
2.885,-1.04223069341161
2.89,-1.08803848973715
2.895,-1.13679614377832
2.9,-1.18875180104072
2.905,-1.24417879181762
2.91,-1.30337853980838
2.915,-1.36668383430118
2.92,-1.43446251232649
2.925,-1.50712160263575
2.93,-1.58511198920727
2.935,-1.66893365815864
2.94,-1.75914159833024
2.945,-1.85635243220427
2.95,-1.96125185993975
2.955,-2.07460300469319
2.96,-2.19725575140242
2.965,-2.33015717287375
2.97,-2.47436313490498
2.975,-2.6310511641584
2.98,-2.80153464530146
2.985,-2.98727838245177
2.99,-3.18991550603225
2.995,-3.41126561638871
3,-3.65335390758379
