"Freq [GHz]","dB(S(ground_T1,ground_T1)) []"
2,-0.0233400942600927
2.005,-0.0235518844038405
2.01,-0.02376461537519
2.015,-0.023978311097105
2.02,-0.0241929954891073
2.025,-0.0244086924709219
2.03,-0.024625425966105
2.035,-0.0248432199057107
2.04,-0.0250620982319378
2.045,-0.0252820849018249
2.05,-0.0255032038909332
2.055,-0.025725479197059
2.06,-0.0259489348439596
2.065,-0.0261735948850963
2.07,-0.026399483407394
2.075,-0.0266266245350378
2.08,-0.0268550424332623
2.085,-0.0270847613121919
2.09,-0.0273158054306896
2.095,-0.0275481991002311
2.1,-0.0277819666888203
2.105,-0.0280171326249094
2.11,-0.0282537214013634
2.115,-0.0284917575794542
2.12,-0.0287312657928864
2.125,-0.0289722707518379
2.13,-0.0292147972470631
2.135,-0.0294588701540144
2.14,-0.029704514436991
2.145,-0.0299517551533516
2.15,-0.030200617457743
2.155,-0.0304511266063805
2.16,-0.0307033079613576
2.165,-0.0309571869950163
2.17,-0.0312127892943537
2.175,-0.0314701405654592
2.18,-0.031729266638029
2.185,-0.0319901934698956
2.19,-0.0322529471516384
2.195,-0.0325175539112094
2.2,-0.0327840401186584
2.205,-0.0330524322908576
2.21,-0.0333227570963292
2.215,-0.0335950413600985
2.22,-0.0338693120686255
2.225,-0.034145596374772
2.23,-0.0344239216028559
2.235,-0.0347043152537596
2.24,-0.0349868050100898
2.245,-0.0352714187414225
2.25,-0.0355581845095996
2.255,-0.035847130574105
2.26,-0.0361382853975069
2.265,-0.0364316776509768
2.27,-0.0367273362198661
2.275,-0.0370252902093908
2.28,-0.0373255689503584
2.285,-0.0376282020049955
2.29,-0.0379332191728548
2.295,-0.0382406504967911
2.3,-0.0385505262690403
2.305,-0.038862877037373
2.31,-0.0391777336113385
2.315,-0.0394951270686039
2.32,-0.0398150887613719
2.325,-0.0401376503229256
2.33,-0.0404628436742148
2.335,-0.0407907010306021
2.34,-0.041121254908656
2.345,-0.0414545381330881
2.35,-0.0417905838437654
2.355,-0.0421294255028451
2.36,-0.0424710969020162
2.365,-0.0428156321698403
2.37,-0.0431630657792292
2.375,-0.0435134325550148
2.38,-0.0438667676816459
2.385,-0.0442231067110148
2.39,-0.044582485570387
2.395,-0.0449449405704799
2.4,-0.0453105084136397
2.405,-0.0456792262021925
2.41,-0.046051131446871
2.415,-0.0464262620754254
2.42,-0.0468046564413566
2.425,-0.0471863533327778
2.43,-0.0475713919814363
2.435,-0.0479598120718794
2.44,-0.0483516537507583
2.445,-0.0487469576362952
2.45,-0.04914576482791
2.455,-0.0495481169159882
2.46,-0.0499540559918258
2.465,-0.0503636246577325
2.47,-0.0507768660373011
2.475,-0.0511938237858555
2.48,-0.0516145421010531
2.485,-0.0520390657337
2.49,-0.0524674399987063
2.495,-0.0528997107862658
2.5,-0.0533359245731654
2.505,-0.0537761284343812
2.51,-0.0542203700547514
2.515,-0.0546686977409578
2.52,-0.0551211604336304
2.525,-0.0555778077196984
2.53,-0.0560386898449412
2.535,-0.056503857726757
2.54,-0.0569733629671481
2.545,-0.0574472578659118
2.55,-0.0579255954340989
2.555,-0.0584084294076571
2.56,-0.0588958142613313
2.565,-0.0593878052228208
2.57,-0.0598844582871329
2.575,-0.0603858302312461
2.58,-0.0608919786289626
2.585,-0.0614029618660782
2.59,-0.0619188391557687
2.595,-0.0624396705542686
2.6,-0.0629655169768196
2.605,-0.0634964402138986
2.61,-0.064032502947703
2.615,-0.064573768768964
2.62,-0.0651203021940292
2.625,-0.0656721686822526
2.63,-0.0662294346536711
2.635,-0.0667921675070217
2.64,-0.0673604356380528
2.645,-0.0679343084581522
2.65,-0.06851385641333
2.655,-0.0690991510035098
2.66,-0.0696902648021559
2.665,-0.0702872714762818
2.67,-0.0708902458067627
2.675,-0.0714992637090425
2.68,-0.0721144022542045
2.685,-0.0727357396903784
2.69,-0.0733633554645714
2.695,-0.0739973302448587
2.7,-0.0746377459429706
2.705,-0.0752846857372855
2.71,-0.0759382340962241
2.715,-0.0765984768020562
2.72,-0.0772655009751394
2.725,-0.077939395098568
2.73,-0.0786202490432881
2.735,-0.0793081540936338
2.74,-0.08000320297332
2.745,-0.0807054898719074
2.75,-0.0814151104717267
2.755,-0.082132161975284
2.76,-0.0828567431331653
2.765,-0.0835889542723975
2.77,-0.084328897325371
2.775,-0.0850766758592251
2.78,-0.0858323951057835
2.785,-0.0865961619920087
2.79,-0.0873680851710032
2.795,-0.0881482750535661
2.8,-0.0889368438402886
2.805,-0.0897339055542497
2.81,-0.0905395760742778
2.815,-0.091353973168781
2.82,-0.0921772165302203
2.825,-0.0930094278101639
2.83,-0.0938507306549738
2.835,-0.0947012507421163
2.84,-0.0955611158171272
2.845,-0.0964304557312353
2.85,-0.0973094024796246
2.855,-0.0981980902404054
2.86,-0.0990966554142609
2.865,-0.100005236664786
2.87,-0.100923974959565
2.875,-0.101853013611936
2.88,-0.102792498323528
2.885,-0.103742577227529
2.89,-0.104703400932711
2.895,-0.105675122568249
2.9,-0.106657897829311
2.905,-0.107651885023469
2.91,-0.108657245117871
2.915,-0.109674141787326
2.92,-0.110702741463156
2.925,-0.111743213382931
2.93,-0.112795729641077
2.935,-0.113860465240357
2.94,-0.114937598144248
2.945,-0.116027309330241
2.95,-0.117129782844058
2.955,-0.118245205854795
2.96,-0.119373768711056
2.965,-0.12051566499801
2.97,-0.121671091595489
2.975,-0.122840248737021
2.98,-0.124023340069933
2.985,-0.125220572716464
2.99,-0.126432157335907
2.995,-0.127658308187848
3,-0.128899243196451
