"Freq [GHz]","dB(S(ground_T1,ground_T1)) []"
2,-0.0219875404468979
2.005,-0.0222533191680345
2.01,-0.0225242601440646
2.015,-0.022800479791889
2.02,-0.0230820984521319
2.025,-0.023369240538919
2.03,-0.0236620346965296
2.035,-0.0239606139632229
2.04,-0.0242651159426221
2.045,-0.0245756829830934
2.05,-0.0248924623654762
2.055,-0.0252156064996874
2.06,-0.0255452731305905
2.065,-0.0258816255537028
2.07,-0.0262248328412358
2.075,-0.026575070079043
2.08,-0.026932518615068
2.085,-0.0272973663199632
2.09,-0.0276698078604988
2.095,-0.0280500449865363
2.1,-0.0284382868323159
2.105,-0.0288347502328526
2.11,-0.0292396600563422
2.115,-0.02965324955348
2.12,-0.0300757607246681
2.125,-0.0305074447062017
2.13,-0.030948562176497
2.135,-0.031399383783598
2.14,-0.0318601905952201
2.145,-0.0323312745726678
2.15,-0.032812939070137
2.155,-0.0333054993608812
2.16,-0.0338092831919477
2.165,-0.0343246313692582
2.17,-0.0348518983749133
2.175,-0.0353914530187435
2.18,-0.0359436791263487
2.185,-0.0365089762658693
2.19,-0.0370877605160719
2.195,-0.0376804652784008
2.2,-0.0382875421358686
2.205,-0.0389094617619288
2.21,-0.0395467148825987
2.215,-0.0401998132954813
2.22,-0.0408692909494799
2.225,-0.0415557050893772
2.23,-0.0422596374697844
2.235,-0.0429816956431832
2.24,-0.0437225143273646
2.245,-0.0444827568577915
2.25,-0.0452631167309616
2.255,-0.046064319245333
2.26,-0.0468871232468559
2.265,-0.0477323229867762
2.27,-0.0486007501000047
2.275,-0.049493275712995
2.28,-0.0504108126909268
2.285,-0.0513543180346804
2.29,-0.0523247954391216
2.295,-0.0533232980251311
2.3,-0.0543509312589533
2.305,-0.0554088560735482
2.31,-0.0564982922080617
2.315,-0.0576205217829012
2.32,-0.0587768931294594
2.325,-0.0599688248953659
2.33,-0.0611978104480245
2.335,-0.0624654226013124
2.34,-0.0637733186926885
2.345,-0.0651232460405836
2.35,-0.066517047814733
2.355,-0.0679566693554251
2.36,-0.0694441649810542
2.365,-0.0709817053273659
2.37,-0.0725715852661084
2.375,-0.0742162324556767
2.38,-0.0759182165816856
2.385,-0.0776802593515264
2.39,-0.0795052453135447
2.395,-0.0813962335791423
2.4,-0.0833564705343807
2.405,-0.0853894036371549
2.41,-0.0874986964065355
2.415,-0.0896882447227415
2.42,-0.0919621945695383
2.425,-0.0943249613658721
2.43,-0.0967812510504803
2.435,-0.099336083102329
2.44,-0.101994815701351
2.445,-0.104763173258406
2.45,-0.107647276571142
2.455,-0.110653675893982
2.46,-0.113789387246268
2.465,-0.117061932323433
2.47,-0.120479382422712
2.475,-0.124050406848138
2.48,-0.127784326320542
2.485,-0.131691171988282
2.49,-0.135781750714735
2.495,-0.140067717411125
2.5,-0.144561655289954
2.505,-0.149277165037564
2.51,-0.154228964047096
2.515,-0.159432997018624
2.52,-0.164906559425771
2.525,-0.17066843557224
2.53,-0.176739053223449
2.535,-0.183140657104742
2.54,-0.189897503916713
2.545,-0.197036081940427
2.55,-0.204585358802708
2.555,-0.212577061559242
2.56,-0.221045993949228
2.565,-0.230030396501296
2.57,-0.239572356154199
2.575,-0.249718273229817
2.58,-0.260519395001816
2.585,-0.272032426790785
2.59,-0.284320233549087
2.595,-0.297452647353234
2.6,-0.311507399195889
2.605,-0.326571197084872
2.61,-0.342740976865803
2.615,-0.360125357580448
2.62,-0.378846339798478
2.625,-0.399041293525158
2.63,-0.420865292386337
2.635,-0.444493863329408
2.64,-0.47012623670356
2.645,-0.497989201130972
2.65,-0.528341692136497
2.655,-0.561480274475944
2.66,-0.597745717333552
2.665,-0.637530911462646
2.67,-0.681290441102931
2.675,-0.72955220533833
2.68,-0.782931589070188
2.685,-0.842148820478482
2.69,-0.908050329833609
2.695,-0.981635157502379
2.7,-1.06408776568674
2.705,-1.15681901468772
2.71,-1.26151760642954
2.715,-1.38021502693151
2.72,-1.51536800980514
2.725,-1.66996390550989
2.73,-1.84765624658309
2.735,-2.0529405204428
2.74,-2.29138415593929
2.745,-2.56993080116558
2.75,-2.89730860061619
2.755,-3.28458823683971
2.76,-3.74596478777989
2.765,-4.29989025002295
2.77,-4.97078818821453
2.775,-5.79180264331254
2.78,-6.80953290709359
2.785,-8.09293836600548
2.79,-9.75200889077847
2.795,-11.9828865138283
2.8,-15.2019665561159
2.805,-20.6142496563398
2.81,-34.3090243168904
2.815,-22.3857920450096
2.82,-16.1451633954995
2.825,-12.6482011061722
2.83,-10.2842087740597
2.835,-8.54921909670942
2.84,-7.21734438466988
2.845,-6.16586654321788
2.85,-5.31960027948204
2.855,-4.62864052090131
2.86,-4.05799293868744
2.865,-3.58215979937054
2.87,-3.18204717958015
2.875,-2.84306568855647
2.88,-2.55389490792975
2.885,-2.30564258713336
2.89,-2.09125234495227
2.895,-1.90507528602821
2.9,-1.74255384565944
2.905,-1.59998475379414
2.91,-1.47433905950803
2.915,-1.36312404550605
2.92,-1.26427633335924
2.925,-1.17607848210613
2.93,-1.09709345437041
2.935,-1.02611278537355
2.94,-0.962115339188937
2.945,-0.904234300322803
2.95,-0.851730611251385
2.955,-0.803971484942684
2.96,-0.760412935192106
2.965,-0.720585504696114
2.97,-0.684082551123418
2.975,-0.650550589449127
2.98,-0.619681295035622
2.985,-0.59120485413874
2.99,-0.564884412451557
2.995,-0.540511422273676
3,-0.517901728145273
