"Freq [GHz]","dB(S(ground_T1,ground_T1)) []"
2,-0.0226717144805703
2.005,-0.0228958450974895
2.01,-0.0231212946272812
2.015,-0.0233481042249852
2.02,-0.0235763150711347
2.025,-0.0238059683791544
2.03,-0.0240371054028165
2.035,-0.0242697674438054
2.04,-0.0245039958593376
2.045,-0.0247398320699108
2.05,-0.024977317567134
2.055,-0.0252164939216451
2.06,-0.025457402791175
2.065,-0.0257000859286743
2.07,-0.025944585190597
2.075,-0.0261909425452823
2.08,-0.0264392000814692
2.085,-0.0266894000169347
2.09,-0.0269415847072905
2.095,-0.027195796654878
2.1,-0.0274520785178625
2.105,-0.027710473119438
2.11,-0.0279710234572057
2.115,-0.0282337727127108
2.12,-0.0284987642611636
2.125,-0.0287660416813152
2.13,-0.0290356487655152
2.135,-0.029307629529982
2.14,-0.0295820282252364
2.145,-0.0298588893467539
2.15,-0.0301382576458147
2.155,-0.0304201781405839
2.16,-0.0307046961273879
2.165,-0.0309918571922459
2.17,-0.0312817072226192
2.175,-0.0315742924194063
2.18,-0.0318696593092088
2.185,-0.0321678547568255
2.19,-0.0324689259780488
2.195,-0.0327729205527123
2.2,-0.0330798864380373
2.205,-0.0333898719822634
2.21,-0.0337029259386044
2.215,-0.0340190974794926
2.22,-0.0343384362111609
2.225,-0.034660992188558
2.23,-0.0349868159306088
2.235,-0.0353159584358171
2.24,-0.0356484711982509
2.245,-0.0359844062238926
2.25,-0.036323816047392
2.255,-0.0366667537492007
2.26,-0.0370132729731306
2.265,-0.0373634279443538
2.27,-0.0377172734877965
2.275,-0.038074865047044
2.28,-0.03843625870366
2.285,-0.0388015111970244
2.29,-0.0391706799446364
2.295,-0.0395438230629505
2.3,-0.0399209993887367
2.305,-0.0403022685009637
2.31,-0.0406876907432612
2.315,-0.0410773272469516
2.32,-0.0414712399546706
2.325,-0.0418694916446102
2.33,-0.042272145955377
2.335,-0.0426792674115198
2.34,-0.0430909214497067
2.345,-0.0435071744456053
2.35,-0.0439280937414803
2.355,-0.0443537476744993
2.36,-0.0447842056058303
2.365,-0.045219537950479
2.37,-0.0456598162079725
2.375,-0.0461051129938326
2.38,-0.0465555020719284
2.385,-0.0470110583876929
2.39,-0.0474718581022687
2.395,-0.0479379786275599
2.4,-0.0484094986622796
2.405,-0.048886498228974
2.41,-0.0493690587120701
2.415,-0.0498572628969975
2.42,-0.0503511950103947
2.425,-0.050850940761435
2.43,-0.0513565873843203
2.435,-0.0518682236819715
2.44,-0.0523859400709532
2.445,-0.0529098286276839
2.45,-0.0534399831359371
2.455,-0.0539764991357242
2.46,-0.0545194739735703
2.465,-0.0550690068542242
2.47,-0.0556251988938735
2.475,-0.0561881531748997
2.48,-0.0567579748021957
2.485,-0.0573347709611676
2.49,-0.05791865097739
2.495,-0.05850972637802
2.5,-0.0591081109550307
2.505,-0.0597139208302815
2.51,-0.0603272745225313
2.515,-0.0609482930164338
2.52,-0.0615770998335752
2.525,-0.0622138211056371
2.53,-0.0628585856497584
2.535,-0.0635115250461277
2.54,-0.0641727737179463
2.545,-0.0648424690137813
2.55,-0.0655207512924161
2.555,-0.0662077640102856
2.56,-0.0669036538115553
2.565,-0.0676085706209839
2.57,-0.0683226677395908
2.575,-0.069046101943288
2.58,-0.0697790335845601
2.585,-0.0705216266972525
2.59,-0.0712740491046519
2.595,-0.072036472530888
2.6,-0.0728090727158356
2.605,-0.0735920295336052
2.61,-0.0743855271147477
2.615,-0.0751897539723082
2.62,-0.0760049031318492
2.625,-0.076831172265629
2.63,-0.0776687638309767
2.635,-0.0785178852131442
2.64,-0.0793787488726684
2.645,-0.0802515724974955
2.65,-0.0811365791599765
2.655,-0.0820339974789238
2.66,-0.0829440617869315
2.665,-0.0838670123030984
2.67,-0.0848030953113912
2.675,-0.0857525633448308
2.68,-0.0867156753757053
2.685,-0.0876926970120286
2.69,-0.0886839007004938
2.695,-0.0896895659361237
2.7,-0.0907099794788639
2.705,-0.0917454355774139
2.71,-0.0927962362004961
2.715,-0.0938626912758985
2.72,-0.0949451189375229
2.725,-0.0960438457807768
2.73,-0.0971592071265908
2.735,-0.0982915472944042
2.74,-0.0994412198844152
2.745,-0.100608588069492
2.75,-0.101794024897076
2.755,-0.102997913601449
2.76,-0.10422064792678
2.765,-0.105462632461333
2.77,-0.106724282983289
2.775,-0.108006026818599
2.78,-0.10930830321133
2.785,-0.110631563707024
2.79,-0.111976272549494
2.795,-0.113342907091664
2.8,-0.114731958220927
2.805,-0.116143930799626
2.81,-0.117579344121247
2.815,-0.119038732382883
2.82,-0.120522645174729
2.825,-0.122031647987122
2.83,-0.123566322735977
2.835,-0.125127268307209
2.84,-0.126715101121015
2.845,-0.128330455716728
2.85,-0.129973985359109
2.855,-0.131646362666913
2.86,-0.133348280264672
2.865,-0.135080451458568
2.87,-0.136843610937453
2.875,-0.138638515499976
2.88,-0.140465944808906
2.885,-0.142326702173811
2.89,-0.144221615363178
2.895,-0.146151537447271
2.9,-0.148117347672934
2.905,-0.150119952371752
2.91,-0.152160285902849
2.915,-0.154239311631909
2.92,-0.156358022947807
2.925,-0.158517444318557
2.93,-0.160718632388144
2.935,-0.162962677116062
2.94,-0.165250702961292
2.945,-0.167583870112705
2.95,-0.169963375767813
2.955,-0.172390455461998
2.96,-0.174866384450359
2.965,-0.177392479144495
2.97,-0.179970098606598
2.975,-0.18260064610333
2.98,-0.18528557072216
2.985,-0.18802636905284
2.99,-0.190824586936929
2.995,-0.193681821288378
3,-0.196599721988287
