"Freq [GHz]","dB(S(ground_T1,ground_T1)) []"
2,-0.0411295278713813
2.005,-0.0416527322383774
2.01,-0.0421815461540222
2.015,-0.0427160194674953
2.02,-0.0432562034792759
2.025,-0.0438021509636501
2.03,-0.0443539161917913
2.035,-0.0449115549554121
2.04,-0.0454751245909759
2.045,-0.0460446840045281
2.05,-0.0466202936971169
2.055,-0.0472020157908373
2.06,-0.0477899140555006
2.065,-0.0483840539359448
2.07,-0.0489845025800025
2.075,-0.0495913288671471
2.08,-0.0502046034377967
2.085,-0.0508243987233289
2.09,-0.0514507889768119
2.095,-0.0520838503044389
2.1,-0.0527236606977276
2.105,-0.0533703000664568
2.11,-0.0540238502723769
2.115,-0.0546843951637113
2.12,-0.0553520206104623
2.125,-0.056026814540538
2.13,-0.056708866976707
2.135,-0.0573982700744299
2.14,-0.0580951181605403
2.145,-0.0587995077728444
2.15,-0.0595115377006201
2.155,-0.060231309026036
2.16,-0.0609589251665583
2.165,-0.0616944919182977
2.17,-0.0624381175003623
2.175,-0.06318991260024
2.18,-0.0639499904201922
2.185,-0.0647184667247434
2.19,-0.0654954598892181
2.195,-0.0662810909494234
2.2,-0.0670754836524321
2.205,-0.0678787645085591
2.21,-0.0686910628444812
2.215,-0.0695125108575987
2.22,-0.0703432436716345
2.225,-0.0711833993934671
2.23,-0.0720331191712882
2.235,-0.0728925472540781
2.24,-0.0737618310524073
2.245,-0.0746411212006477
2.25,-0.0755305716205857
2.255,-0.0764303395864807
2.26,-0.0773405857915736
2.265,-0.0782614744161613
2.27,-0.0791931731971555
2.275,-0.0801358534992394
2.28,-0.0810896903876565
2.285,-0.0820548627026063
2.29,-0.0830315531353643
2.295,-0.0840199483060845
2.3,-0.0850202388434052
2.305,-0.0860326194658112
2.31,-0.0870572890648607
2.315,-0.0880944507902846
2.32,-0.0891443121370053
2.325,-0.0902070850341059
2.33,-0.0912829859358427
2.335,-0.0923722359146512
2.34,-0.0934750607563018
2.345,-0.0945916910571507
2.35,-0.0957223623236051
2.355,-0.0968673150738095
2.36,-0.0980267949416217
2.365,-0.0992010527828998
2.37,-0.10039034478419
2.375,-0.101594932573841
2.38,-0.102815083335576
2.385,-0.104051069924637
2.39,-0.105303170986481
2.395,-0.106571671078128
2.4,-0.107856860792216
2.405,-0.109159036883768
2.41,-0.110478502399809
2.415,-0.111815566811813
2.42,-0.113170546151059
2.425,-0.114543763147005
2.43,-0.115935547368637
2.435,-0.117346235368943
2.44,-0.118776170832539
2.445,-0.120225704726488
2.45,-0.121695195454373
2.455,-0.123185009013735
2.46,-0.124695519156853
2.465,-0.126227107555006
2.47,-0.127780163966204
2.475,-0.129355086406508
2.48,-0.130952281324965
2.485,-0.132572163782202
2.49,-0.134215157632786
2.495,-0.135881695711347
2.5,-0.137572220022579
2.505,-0.139287181935115
2.51,-0.14102704237936
2.515,-0.142792272049351
2.52,-0.144583351608648
2.525,-0.146400771900321
2.53,-0.148245034161104
2.535,-0.150116650239711
2.54,-0.152016142819404
2.545,-0.153944045644768
2.55,-0.155900903752831
2.555,-0.157887273708455
2.56,-0.159903723844081
2.565,-0.16195083450382
2.57,-0.164029198291899
2.575,-0.166139420325462
2.58,-0.168282118491745
2.585,-0.170457923709572
2.59,-0.172667480195196
2.595,-0.174911445732405
2.6,-0.177190491946902
2.605,-0.179505304584859
2.61,-0.181856583795622
2.615,-0.184245044418451
2.62,-0.186671416273222
2.625,-0.189136444454988
2.63,-0.191640889632241
2.635,-0.19418552834877
2.64,-0.196771153328908
2.645,-0.199398573786019
2.65,-0.202068615733973
2.655,-0.20478212230141
2.66,-0.2075399540485
2.665,-0.210342989285898
2.67,-0.213192124395596
2.675,-0.216088274153292
2.68,-0.219032372051837
2.685,-0.222025370625391
2.69,-0.225068241773739
2.695,-0.228161977086254
2.7,-0.231307588164915
2.705,-0.234506106945758
2.71,-0.237758586018006
2.715,-0.241066098940194
2.72,-0.244429740552361
2.725,-0.247850627283486
2.73,-0.251329897453091
2.735,-0.254868711566036
2.74,-0.258468252599222
2.745,-0.262129726279053
2.75,-0.265854361348189
2.755,-0.269643409820135
2.76,-0.273498147220096
2.765,-0.277419872810236
2.77,-0.281409909797618
2.775,-0.285469605522623
2.78,-0.289600331625759
2.785,-0.29380348419043
2.79,-0.298080483859098
2.795,-0.302432775920098
2.8,-0.306861830362064
2.805,-0.311369141892839
2.81,-0.315956229919292
2.815,-0.320624638484399
2.82,-0.325375936157523
2.825,-0.330211715873582
2.83,-0.335133594716457
2.835,-0.340143213641648
2.84,-0.345242237132764
2.845,-0.350432352786145
2.85,-0.355715270817351
2.855,-0.361092723482868
2.86,-0.366566464409953
2.865,-0.372138267826849
2.87,-0.37780992768524
2.875,-0.383583256666078
2.88,-0.389460085059373
2.885,-0.395442259507797
2.89,-0.401531641603314
2.895,-0.407730106325182
2.9,-0.414039540306996
2.905,-0.420461839919443
2.91,-0.42699890915462
2.915,-0.433652657296806
2.92,-0.440424996363392
2.925,-0.447317838298877
2.93,-0.454333091903371
2.935,-0.461472659476035
2.94,-0.4687384331526
2.945,-0.476132290914548
2.95,-0.483656092246475
2.955,-0.491311673416285
2.96,-0.499100842351547
2.965,-0.50702537308363
2.97,-0.515086999729514
2.975,-0.523287409979383
2.98,-0.531628238056274
2.985,-0.540111057112165
2.99,-0.548737371022796
2.995,-0.557508605541634
3,-0.566426098771189
