"Freq [GHz]","dB(S(ground_T1,ground_T1)) []"
2,-0.0148409802926875
2.005,-0.0148983215850634
2.01,-0.0149560896344403
2.015,-0.0150142877502281
2.02,-0.0150729192581232
2.025,-0.0151319875002687
2.03,-0.0151914958353747
2.035,-0.0152514476388821
2.04,-0.0153118463030833
2.045,-0.0153726952372841
2.05,-0.0154339978679435
2.055,-0.015495757638804
2.06,-0.0155579780110577
2.065,-0.0156206624634791
2.07,-0.0156838144925762
2.075,-0.0157474376127302
2.08,-0.0158115353563577
2.085,-0.0158761112740426
2.09,-0.015941168934695
2.095,-0.0160067119256991
2.1,-0.0160727438530557
2.105,-0.0161392683415504
2.11,-0.0162062890348855
2.115,-0.0162738095958426
2.12,-0.01634183370643
2.125,-0.0164103650680449
2.13,-0.0164794074016208
2.135,-0.0165489644477789
2.14,-0.0166190399669921
2.145,-0.0166896377397385
2.15,-0.0167607615666576
2.155,-0.0168324152687004
2.16,-0.0169046026873053
2.165,-0.0169773276845389
2.17,-0.017050594143273
2.175,-0.0171244059673305
2.18,-0.0171987670816556
2.185,-0.0172736814324739
2.19,-0.0173491529874549
2.195,-0.0174251857358785
2.2,-0.017501783688795
2.205,-0.0175789508791987
2.21,-0.0176566913621834
2.215,-0.0177350092151246
2.22,-0.0178139085378223
2.225,-0.0178933934527088
2.23,-0.0179734681049802
2.235,-0.0180541366627851
2.24,-0.0181354033174042
2.245,-0.0182172722834016
2.25,-0.0182997477988136
2.255,-0.0183828341253208
2.26,-0.018466535548422
2.265,-0.018550856377613
2.27,-0.0186358009465506
2.275,-0.0187213736132552
2.28,-0.01880757876026
2.285,-0.0188944207948207
2.29,-0.0189819041490794
2.295,-0.0190700332802443
2.3,-0.0191588126707807
2.305,-0.0192482468285967
2.31,-0.0193383402872174
2.315,-0.0194290976059882
2.32,-0.0195205233702342
2.325,-0.0196126221914813
2.33,-0.0197053987076215
2.335,-0.0197988575831152
2.34,-0.0198930035091721
2.345,-0.0199878412039534
2.35,-0.020083375412762
2.355,-0.0201796109082392
2.36,-0.0202765524905472
2.365,-0.0203742049875901
2.37,-0.0204725732551839
2.375,-0.0205716621772826
2.38,-0.0206714766661539
2.385,-0.020772021662601
2.39,-0.0208733021361501
2.395,-0.0209753230852637
2.4,-0.0210780895375324
2.405,-0.0211816065499034
2.41,-0.021285879208861
2.415,-0.0213909126306576
2.42,-0.021496711961512
2.425,-0.0216032823778167
2.43,-0.0217106290863621
2.435,-0.0218187573245373
2.44,-0.0219276723605538
2.445,-0.0220373794936567
2.45,-0.0221478840543415
2.455,-0.0222591914045753
2.46,-0.022371306938018
2.465,-0.0224842360802324
2.47,-0.0225979842889281
2.475,-0.0227125570541516
2.48,-0.0228279598985495
2.485,-0.0229441983775677
2.49,-0.0230612780796859
2.495,-0.0231792046266583
2.5,-0.0232979836737203
2.505,-0.0234176209098497
2.51,-0.023538122057968
2.515,-0.0236594928752067
2.52,-0.0237817391531151
2.525,-0.0239048667179176
2.53,-0.0240288814307468
2.535,-0.0241537891878786
2.54,-0.0242795959209762
2.545,-0.024406307597344
2.55,-0.0245339302201535
2.555,-0.0246624698287054
2.56,-0.0247919324986656
2.565,-0.0249223243423295
2.57,-0.0250536515088558
2.575,-0.0251859201845261
2.58,-0.0253191365930059
2.585,-0.0254533069955847
2.59,-0.0255884376914497
2.595,-0.0257245350179302
2.6,-0.0258616053507633
2.605,-0.0259996551043646
2.61,-0.0261386907320712
2.615,-0.0262787187264221
2.62,-0.026419745619427
2.625,-0.0265617779828205
2.63,-0.0267048224283466
2.635,-0.0268488856080214
2.64,-0.0269939742144049
2.645,-0.0271400949808845
2.65,-0.027287254681948
2.655,-0.0274354601334565
2.66,-0.0275847181929301
2.665,-0.0277350357598308
2.67,-0.0278864197758432
2.675,-0.028038877225157
2.68,-0.028192415134762
2.685,-0.028347040574731
2.69,-0.0285027606585098
2.695,-0.0286595825432183
2.7,-0.0288175134299285
2.705,-0.0289765605639778
2.71,-0.0291367312352621
2.715,-0.0292980327785269
2.72,-0.0294604725736788
2.725,-0.0296240580460861
2.73,-0.0297887966668825
2.735,-0.0299546959532804
2.74,-0.03012176346887
2.745,-0.0302900068239412
2.75,-0.0304594336757895
2.755,-0.0306300517290362
2.76,-0.030801868735942
2.765,-0.0309748924967264
2.77,-0.0311491308598957
2.775,-0.0313245917225518
2.78,-0.0315012830307306
2.785,-0.0316792127797249
2.79,-0.0318583890144099
2.795,-0.0320388198295866
2.8,-0.0322205133702933
2.805,-0.0324034778321661
2.81,-0.0325877214617591
2.815,-0.0327732525568903
2.82,-0.0329600794669858
2.825,-0.0331482105934133
2.83,-0.0333376543898442
2.835,-0.0335284193625902
2.84,-0.0337205140709565
2.845,-0.0339139471276007
2.85,-0.0341087271988666
2.855,-0.0343048630051755
2.86,-0.0345023633213564
2.865,-0.0347012369770207
2.87,-0.0349014928569236
2.875,-0.035103139901327
2.88,-0.0353061871063767
2.885,-0.0355106435244644
2.89,-0.0357165182646018
2.895,-0.0359238204928008
2.9,-0.036132559432451
2.905,-0.0363427443646916
2.91,-0.0365543846288042
2.915,-0.0367674896225917
2.92,-0.0369820688027663
2.925,-0.0371981316853407
2.93,-0.037415687846024
2.935,-0.0376347469206059
2.94,-0.0378553186053576
2.945,-0.038077412657448
2.95,-0.0383010388953143
2.955,-0.0385262071990939
2.96,-0.0387529275110183
2.965,-0.0389812098358277
2.97,-0.0392110642411779
2.975,-0.0394425008580634
2.98,-0.0396755298812282
2.985,-0.039910161569584
2.99,-0.0401464062466411
2.995,-0.0403842743009239
3,-0.040623776186411
