"Freq [GHz]","dB(S(ground_T1,ground_T1)) []"
2,-0.0160326208039091
2.005,-0.0161339440501807
2.01,-0.016236358224371
2.015,-0.0163398749169038
2.02,-0.0164445059095175
2.025,-0.0165502631786781
2.03,-0.0166571588991313
2.035,-0.0167652054474963
2.04,-0.0168744154059727
2.045,-0.0169848015661252
2.05,-0.0170963769327793
2.055,-0.0172091547280027
2.06,-0.0173231483951709
2.065,-0.017438371603167
2.07,-0.0175548382506561
2.075,-0.0176725624704874
2.08,-0.0177915586341958
2.085,-0.0179118413566228
2.09,-0.0180334255006369
2.095,-0.0181563261820084
2.1,-0.0182805587743712
2.105,-0.0184061389143351
2.11,-0.0185330825067182
2.115,-0.0186614057299171
2.12,-0.0187911250414101
2.125,-0.0189222571834099
2.13,-0.0190548191886589
2.135,-0.0191888283863689
2.14,-0.0193243024083354
2.145,-0.01946125919517
2.15,-0.0195997170027651
2.155,-0.0197396944088497
2.16,-0.0198812103197723
2.165,-0.0200242839774538
2.17,-0.0201689349665013
2.175,-0.0203151832215443
2.18,-0.0204630490347461
2.185,-0.0206125530635234
2.19,-0.0207637163384763
2.195,-0.0209165602715239
2.2,-0.0210711066642817
2.205,-0.0212273777166371
2.21,-0.0213853960355903
2.215,-0.0215451846443108
2.22,-0.0217067669914708
2.225,-0.0218701669608185
2.23,-0.0220354088810108
2.235,-0.022202517535754
2.24,-0.0223715181741943
2.245,-0.0225424365216086
2.25,-0.0227152987904166
2.255,-0.0228901316914772
2.26,-0.0230669624457316
2.265,-0.0232458187961562
2.27,-0.0234267290200813
2.275,-0.0236097219418479
2.28,-0.0237948269458387
2.285,-0.0239820739898926
2.29,-0.024171493619086
2.295,-0.0243631169799627
2.3,-0.0245569758351379
2.305,-0.0247531025783576
2.31,-0.0249515302499981
2.315,-0.0251522925530477
2.32,-0.025355423869513
2.325,-0.0255609592773912
2.33,-0.0257689345681006
2.335,-0.0259793862644629
2.34,-0.0261923516392163
2.345,-0.0264078687341276
2.35,-0.0266259763796609
2.355,-0.0268467142152635
2.36,-0.0270701227102842
2.365,-0.0272962431855376
2.37,-0.0275251178355519
2.375,-0.027756789751508
2.38,-0.0279913029449076
2.385,-0.0282287023719861
2.39,-0.0284690339589132
2.395,-0.0287123446277849
2.4,-0.0289586823234806
2.405,-0.0292080960413442
2.41,-0.0294606358558125
2.415,-0.0297163529499415
2.42,-0.0299752996459039
2.425,-0.030237529436513
2.43,-0.0305030970177758
2.435,-0.0307720583225144
2.44,-0.0310444705551367
2.445,-0.0313203922275529
2.45,-0.0315998831963156
2.455,-0.0318830047010086
2.46,-0.0321698194039516
2.465,-0.0324603914312619
2.47,-0.0327547864153167
2.475,-0.0330530715386995
2.48,-0.0333553155796519
2.485,-0.0336615889591504
2.49,-0.0339719637895695
2.495,-0.0342865139251322
2.5,-0.0346053150140848
2.505,-0.0349284445527801
2.51,-0.0352559819416607
2.515,-0.0355880085432646
2.52,-0.0359246077423424
2.525,-0.0362658650081422
2.53,-0.0366118679589663
2.535,-0.0369627064291171
2.54,-0.0373184725382991
2.545,-0.037679260763597
2.55,-0.0380451680141385
2.555,-0.0384162937085639
2.56,-0.0387927398553948
2.565,-0.039174611136486
2.57,-0.0395620149936043
2.575,-0.0399550617183729
2.58,-0.0403538645456508
2.585,-0.0407585397505237
2.59,-0.0411692067491045
2.595,-0.0415859882032322
2.6,-0.042009010129325
2.605,-0.0424384020115369
2.61,-0.0428742969194007
2.615,-0.0433168316302019
2.62,-0.0437661467562568
2.625,-0.0442223868773582
2.63,-0.0446857006786029
2.635,-0.0451562410938625
2.64,-0.0456341654551598
2.645,-0.046119635648245
2.65,-0.04661281827463
2.655,-0.0471138848204291
2.66,-0.047623011832292
2.665,-0.0481403811008366
2.67,-0.0486661798518468
2.675,-0.0492006009457194
2.68,-0.0497438430855067
2.685,-0.0502961110339556
2.69,-0.0508576158400933
2.695,-0.0514285750757026
2.7,-0.0520092130822904
2.705,-0.0525997612290382
2.71,-0.0532004581823016
2.715,-0.0538115501872245
2.72,-0.0544332913621572
2.725,-0.055065944006465
2.73,-0.0557097789225001
2.735,-0.0563650757524095
2.74,-0.0570321233306506
2.745,-0.0577112200529503
2.75,-0.058402674262676
2.755,-0.0591068046555229
2.76,-0.0598239407034855
2.765,-0.0605544230992233
2.77,-0.0612986042219164
2.775,-0.0620568486257628
2.78,-0.0628295335524638
2.785,-0.0636170494689722
2.79,-0.064419800631954
2.795,-0.0652382056805103
2.8,-0.0660726982587329
2.805,-0.0669237276698442
2.81,-0.0677917595637605
2.815,-0.0686772766600156
2.82,-0.0695807795081384
2.825,-0.0705027872877222
2.83,-0.0714438386505177
2.835,-0.0724044926071287
2.84,-0.0733853294609863
2.845,-0.0743869517924954
2.85,-0.0754099854964502
2.855,-0.0764550808759924
2.86,-0.0775229137967142
2.865,-0.0786141869045925
2.87,-0.0797296309118856
2.875,-0.0808700059553046
2.88,-0.0820361030310961
2.885,-0.0832287455120693
2.89,-0.0844487907518903
2.895,-0.0856971317824204
2.9,-0.086974699110251
2.905,-0.088282462619141
2.91,-0.0896214335854237
2.915,-0.0909926668141497
2.92,-0.0923972629041991
2.925,-0.0938363706513193
2.93,-0.0953111895986971
2.935,-0.0968229727454623
2.94,-0.0983730294242889
2.945,-0.0999627283602435
2.95,-0.101593500923958
2.955,-0.103266844593214
2.96,-0.104984326638335
2.965,-0.106747588047896
2.97,-0.108558347712755
2.975,-0.110418406887859
2.98,-0.112329653953002
2.985,-0.114294069495439
2.99,-0.11631373173936
2.995,-0.118390822349308
3,-0.120527632637082
