"Freq [GHz]","dB(S(ground_T1,ground_T1)) []"
2,-0.0269659199226912
2.005,-0.0272712182220002
2.01,-0.0275782867645369
2.015,-0.0278871988544626
2.02,-0.0281980278511027
2.025,-0.0285108471831542
2.03,-0.0288257303630455
2.035,-0.0291427510014447
2.04,-0.0294619828219225
2.045,-0.0297834996758223
2.05,-0.0301073755572645
2.055,-0.0304336846183737
2.06,-0.030762501184684
2.065,-0.0310938997707613
2.07,-0.0314279550960218
2.075,-0.0317647421008011
2.08,-0.0321043359626197
2.085,-0.0324468121127239
2.09,-0.0327922462528553
2.095,-0.0331407143722856
2.1,-0.0334922927651238
2.105,-0.0338470580479073
2.11,-0.0342050871774614
2.115,-0.0345664574691066
2.12,-0.0349312466151117
2.125,-0.0352995327035406
2.13,-0.0356713942373619
2.135,-0.0360469101539793
2.14,-0.0364261598450465
2.145,-0.036809223176707
2.15,-0.0371961805101863
2.155,-0.037587112722788
2.16,-0.0379821012292984
2.165,-0.0383812280038083
2.17,-0.0387845756019789
2.175,-0.0391922271837389
2.18,-0.039604266536466
2.185,-0.0400207780986347
2.19,-0.0404418469839652
2.195,-0.0408675590060582
2.2,-0.0412980007035942
2.205,-0.0417332593660406
2.21,-0.0421734230599379
2.215,-0.0426185806557506
2.22,-0.0430688218553036
2.225,-0.0435242372198637
2.23,-0.0439849181988221
2.235,-0.0444509571590213
2.24,-0.0449224474147942
2.245,-0.0453994832586367
2.25,-0.0458821599926487
2.255,-0.04637057396066
2.26,-0.0468648225811431
2.265,-0.0473650043808961
2.27,-0.0478712190295215
2.275,-0.0483835673747275
2.28,-0.0489021514785116
2.285,-0.0494270746541734
2.29,-0.0499584415042676
2.295,-0.0504963579594714
2.3,-0.0510409313184139
2.305,-0.05159227028849
2.31,-0.0521504850276933
2.315,-0.0527156871874929
2.32,-0.0532879899567986
2.325,-0.0538675081070245
2.33,-0.0544543580382956
2.335,-0.0550486578268476
2.34,-0.0556505272736316
2.345,-0.0562600879541616
2.35,-0.0568774632696664
2.355,-0.0575027784995447
2.36,-0.0581361608552202
2.365,-0.0587777395353567
2.37,-0.0594276457825813
2.375,-0.0600860129416376
2.38,-0.0607529765191258
2.385,-0.0614286742448054
2.39,-0.0621132461345318
2.395,-0.0628068345548697
2.4,-0.0635095842894595
2.405,-0.064221642607121
2.41,-0.0649431593318595
2.415,-0.0656742869147131
2.42,-0.0664151805075665
2.425,-0.067165998038982
2.43,-0.0679269002920947
2.435,-0.0686980509846429
2.44,-0.069479616851188
2.445,-0.0702717677276181
2.45,-0.0710746766379681
2.455,-0.071888519883648
2.46,-0.0727134771351591
2.465,-0.0735497315263573
2.47,-0.0743974697513425
2.475,-0.0752568821640758
2.48,-0.0761281628807769
2.485,-0.0770115098852103
2.49,-0.0779071251369462
2.495,-0.0788152146826646
2.5,-0.0797359887706389
2.505,-0.0806696619684541
2.51,-0.0816164532840756
2.515,-0.0825765862903962
2.52,-0.0835502892533082
2.525,-0.0845377952634915
2.53,-0.0855393423719498
2.535,-0.0865551737294661
2.54,-0.0875855377300967
2.545,-0.0886306881587863
2.55,-0.089690884343275
2.555,-0.0907663913104221
2.56,-0.091857479947062
2.565,-0.0929644271655625
2.57,-0.0940875160742211
2.575,-0.0952270361526226
2.58,-0.0963832834321742
2.585,-0.0975565606819072
2.59,-0.0987471775997756
2.595,-0.099955451009567
2.6,-0.101181705063648
2.605,-0.102426271451704
2.61,-0.103689489615632
2.615,-0.104971706970856
2.62,-0.106273279134186
2.625,-0.107594570158468
2.63,-0.108935952774231
2.635,-0.110297808638546
2.64,-0.111680528591314
2.645,-0.113084512919244
2.65,-0.114510171627717
2.655,-0.115957924720836
2.66,-0.117428202489864
2.665,-0.118921445810359
2.67,-0.120438106448236
2.675,-0.121978647375074
2.68,-0.12354354309292
2.685,-0.125133279968914
2.69,-0.126748356580029
2.695,-0.128389284068217
2.7,-0.130056586506349
2.705,-0.131750801275201
2.71,-0.133472479451883
2.715,-0.135222186210061
2.72,-0.13700050123229
2.725,-0.138808019134905
2.73,-0.140645349905769
2.735,-0.142513119355354
2.74,-0.144411969581492
2.745,-0.146342559448257
2.75,-0.148305565079392
2.755,-0.1503016803667
2.76,-0.152331617493898
2.765,-0.154396107476338
2.77,-0.156495900717107
2.775,-0.158631767579987
2.78,-0.160804498979753
2.785,-0.163014906990348
2.79,-0.165263825471423
2.795,-0.167552110713793
2.8,-0.169880642104378
2.805,-0.172250322811116
2.81,-0.174662080488487
2.815,-0.177116868004198
2.82,-0.179615664187592
2.825,-0.18215947460045
2.83,-0.184749332330713
2.835,-0.187386298809794
2.84,-0.190071464654126
2.845,-0.192805950531512
2.85,-0.195590908053
2.855,-0.19842752069088
2.86,-0.201317004723485
2.865,-0.204260610207457
2.87,-0.207259621978132
2.875,-0.210315360678711
2.88,-0.2134291838189
2.885,-0.216602486863662
2.89,-0.219836704352762
2.895,-0.223133311051739
2.9,-0.226493823134972
2.905,-0.229919799401467
2.91,-0.23341284252399
2.915,-0.236974600332135
2.92,-0.240606767129936
2.925,-0.244311085048563
2.93,-0.248089345434637
2.935,-0.251943390274641
2.94,-0.255875113655925
2.945,-0.259886463264667
2.95,-0.263979441921162
2.955,-0.268156109152753
2.96,-0.272418582804634
2.965,-0.276769040688652
2.97,-0.28120972227024
2.975,-0.285742930393399
2.98,-0.290371033043693
2.985,-0.295096465148929
2.99,-0.299921730417242
2.995,-0.30484940321205
3,-0.309882130463233
