"Freq [GHz]","dB(S(ground_T1,ground_T1)) []"
2,-1.96540504131392
2.005,-1.47898768560079
2.01,-1.14883391600987
2.015,-0.916736585207997
2.02,-0.748376255579305
2.025,-0.622855414146623
2.03,-0.527017648397126
2.035,-0.452313180506995
2.04,-0.393021644014167
2.045,-0.345213506217876
2.05,-0.306124658133607
2.055,-0.27376892251822
2.06,-0.246691526131601
2.065,-0.223808382932603
2.07,-0.204298950791252
2.075,-0.187533327192736
2.08,-0.173021704766732
2.085,-0.160378722311001
2.09,-0.149297922332633
2.095,-0.139533182711511
2.1,-0.130885036665916
2.105,-0.123190468878957
2.11,-0.116315216907849
2.115,-0.110147900754902
2.12,-0.104595502018782
2.125,-0.0995798501388716
2.13,-0.0950348677749454
2.135,-0.0909043938402279
2.14,-0.0871404499987255
2.145,-0.0837018504517805
2.15,-0.0805530795542142
2.155,-0.0776633799335722
2.16,-0.0750060072113384
2.165,-0.0725576174508855
2.17,-0.0702977610052781
2.175,-0.0682084621649534
2.18,-0.0662738683823817
2.185,-0.0644799562193998
2.19,-0.0628142837725625
2.195,-0.061265781366404
2.2,-0.059824573900008
2.205,-0.0584818294909995
2.21,-0.0572296300590766
2.215,-0.056060860287135
2.22,-0.0549691120355214
2.225,-0.0539486017983154
2.23,-0.0529940992057328
2.235,-0.0521008649138446
2.24,-0.0512645964981221
2.245,-0.0504813811924623
2.25,-0.0497476545007472
2.255,-0.0490601638608981
2.26,-0.0484159366680513
2.265,-0.0478122520688334
2.27,-0.0472466160264757
2.275,-0.0467167392300599
2.28,-0.0462205174828502
2.285,-0.0457560142566018
2.29,-0.0453214451425745
2.295,-0.044915163967161
2.3,-0.0445356503715
2.305,-0.0441814986813691
2.31,-0.0438514079164799
2.315,-0.0435441728079584
2.32,-0.0432586757096433
2.325,-0.0429938793031538
2.33,-0.0427488200093444
2.335,-0.0425226020293462
2.34,-0.0423143919478258
2.345,-0.0421234138391266
2.35,-0.0419489448240033
2.355,-0.0417903110308066
2.36,-0.0416468839202729
2.365,-0.0415180769378135
2.37,-0.041403342461282
2.375,-0.0413021690157947
2.38,-0.0412140787304201
2.385,-0.0411386250142783
2.39,-0.0410753904322223
2.395,-0.0410239847623531
2.4,-0.0409840432197306
2.405,-0.0409552248323376
2.41,-0.0409372109570518
2.415,-0.0409297039247435
2.42,-0.0409324258050976
2.425,-0.0409451172828182
2.43,-0.0409675366382521
2.435,-0.0409994588263522
2.44,-0.041040674649097
2.445,-0.041090990017456
2.45,-0.0411502252999284
2.455,-0.0412182147558043
2.46,-0.0412948060521412
2.465,-0.0413798598645423
2.47,-0.0414732495627232
2.475,-0.0415748609828946
2.48,-0.0416845922896829
2.485,-0.0418023539311666
2.49,-0.0419280686907807
2.495,-0.0420616718396526
2.5,-0.0422031113916372
2.505,-0.0423523484603045
2.51,-0.0425093577114159
2.515,-0.0426741278942691
2.52,-0.0428466624180952
2.525,-0.0430269799115459
2.53,-0.0432151146579313
2.535,-0.0434111167270662
2.54,-0.0436150515126434
2.545,-0.0438269982117104
2.55,-0.0440470465230529
2.555,-0.0442752904582802
2.56,-0.0445118176157814
2.565,-0.0447566915386745
2.57,-0.0450099238966665
2.575,-0.0452714323838463
2.58,-0.0455409799322206
2.585,-0.0458180922586616
2.59,-0.0461019560066844
2.595,-0.0463913118523118
2.6,-0.0466843784084025
2.605,-0.0469788709336167
2.61,-0.0472721978674269
2.615,-0.0475618942964624
2.62,-0.0478462503631497
2.625,-0.0481249323468456
2.63,-0.0483992890331222
2.635,-0.0486721286344001
2.64,-0.0489470335841505
2.645,-0.0492275352439712
2.65,-0.0495164907336127
2.655,-0.0498158168576519
2.66,-0.0501265308493694
2.665,-0.0504489550099106
2.67,-0.0507829570555063
2.675,-0.0511281543018023
2.68,-0.0514840588727214
2.685,-0.0518501682420827
2.69,-0.05222601493346
2.695,-0.0526111893989468
2.7,-0.0530053469401076
2.705,-0.0534082060175183
2.71,-0.0538195424902893
2.715,-0.0542391823943318
2.72,-0.0546669946477009
2.725,-0.0551028843477789
2.73,-0.055546786919285
2.735,-0.0559986631581905
2.74,-0.0564584951133444
2.745,-0.0569262827054072
2.75,-0.0574020409725116
2.755,-0.0578857978375172
2.76,-0.0583775923036112
2.765,-0.0588774729989099
2.77,-0.0593854970041194
2.775,-0.0599017289091841
2.78,-0.0604262400552091
2.785,-0.0609591079262896
2.79,-0.0615004156629492
2.795,-0.0620502516744297
2.8,-0.062608709331617
2.805,-0.0631758867259916
2.81,-0.0637518864828966
2.815,-0.0643368156196594
2.82,-0.0649307854410467
2.825,-0.0655339114658457
2.83,-0.0661463133796993
2.835,-0.0667681150101419
2.84,-0.0673994443205983
2.845,-0.0680404334207107
2.85,-0.0686912185908164
2.855,-0.0693519403188698
2.86,-0.0700227433483129
2.865,-0.0707037767357902
2.87,-0.0713951939177364
2.875,-0.072097152785042
2.88,-0.0728098157652037
2.885,-0.0735333499114451
2.89,-0.0742679269983801
2.895,-0.0750137236239518
2.9,-0.0757709213172954
2.905,-0.0765397066524776
2.91,-0.0773202713678282
2.915,-0.0781128124908446
2.92,-0.078917532468594
2.925,-0.0797346393035746
2.93,-0.0805643466950106
2.935,-0.0814068741856525
2.94,-0.0822624473140635
2.945,-0.0831312977724921
2.95,-0.0840136635704116
2.955,-0.0849097892037615
2.96,-0.0858199258300764
2.965,-0.0867443314495685
2.97,-0.0876832710922971
2.975,-0.0886370170115877
2.98,-0.0896058488838613
2.985,-0.0905900540149919
2.99,-0.0915899275534261
2.995,-0.0926057727102047
3,-0.0936379009861084
