"Freq [GHz]","dB(S(ground_T1,ground_T1)) []"
2,-0.0213116587279815
2.005,-0.0214663925239043
2.01,-0.0216221376603232
2.015,-0.0217789017318925
2.02,-0.0219366924299609
2.025,-0.0220955175437217
2.03,-0.0222553849614121
2.035,-0.0224163026714971
2.04,-0.0225782787638998
2.045,-0.0227413214312341
2.05,-0.0229054389700599
2.055,-0.0230706397821578
2.06,-0.0232369323758289
2.065,-0.0234043253671994
2.07,-0.0235728274815533
2.075,-0.0237424475546916
2.08,-0.0239131945343133
2.085,-0.0240850774813763
2.09,-0.0242581055715645
2.095,-0.0244322880966691
2.1,-0.0246076344660866
2.105,-0.0247841542082811
2.11,-0.0249618569722889
2.115,-0.0251407525292419
2.12,-0.0253208507739181
2.125,-0.0255021617263052
2.13,-0.0256846955332076
2.135,-0.0258684624698571
2.14,-0.0260534729415434
2.145,-0.0262397374853008
2.15,-0.0264272667715888
2.155,-0.0266160716060228
2.16,-0.026806162931091
2.165,-0.026997551827955
2.17,-0.027190249518217
2.175,-0.0273842673657735
2.18,-0.027579616878635
2.185,-0.0277763097108284
2.19,-0.0279743576642862
2.195,-0.0281737726907976
2.2,-0.0283745668939599
2.205,-0.028576752531183
2.21,-0.028780342015704
2.215,-0.0289853479186466
2.22,-0.0291917829711109
2.225,-0.0293996600662846
2.23,-0.0296089922615951
2.235,-0.0298197927808871
2.24,-0.0300320750166466
2.245,-0.030245852532242
2.25,-0.0304611390642072
2.255,-0.0306779485245594
2.26,-0.0308962950031508
2.265,-0.0311161927700568
2.27,-0.0313376562780051
2.275,-0.0315607001648227
2.28,-0.031785339255952
2.285,-0.0320115885669725
2.29,-0.0322394633061827
2.295,-0.0324689788772117
2.3,-0.0327001508816848
2.305,-0.0329329951218887
2.31,-0.033167527603546
2.315,-0.0334037645385637
2.32,-0.0336417223478584
2.325,-0.0338814176642366
2.33,-0.0341228673352766
2.335,-0.0343660884262967
2.34,-0.0346110982233541
2.345,-0.0348579142362694
2.35,-0.035106554201743
2.355,-0.0353570360864653
2.36,-0.0356093780903235
2.365,-0.0358635986496259
2.37,-0.0361197164403851
2.375,-0.0363777503816652
2.38,-0.0366377196389513
2.385,-0.0368996436276068
2.39,-0.0371635420163533
2.395,-0.0374294347308169
2.4,-0.0376973419571432
2.405,-0.0379672841456421
2.41,-0.0382392820145069
2.415,-0.0385133565535869
2.42,-0.0387895290282176
2.425,-0.0390678209831137
2.43,-0.0393482542463155
2.435,-0.0396308509332111
2.44,-0.0399156334506057
2.445,-0.0402026245008612
2.45,-0.040491847086104
2.455,-0.0407833245124959
2.46,-0.0410770803945684
2.465,-0.0413731386596323
2.47,-0.0416715235522552
2.475,-0.041972259638796
2.48,-0.0422753718120362
2.485,-0.0425808852958614
2.49,-0.0428888256500312
2.495,-0.0431992187750154
2.5,-0.043512090916906
2.505,-0.0438274686724281
2.51,-0.0441453789939904
2.515,-0.0444658491948586
2.52,-0.0447889069543826
2.525,-0.0451145803233169
2.53,-0.0454428977292234
2.535,-0.0457738879819671
2.54,-0.046107580279292
2.545,-0.0464440042124815
2.55,-0.0467831897721268
2.555,-0.0471251673539737
2.56,-0.0474699677648637
2.565,-0.0478176222287746
2.57,-0.0481681623929554
2.575,-0.048521620334169
2.58,-0.04887802856502
2.585,-0.0492374200403982
2.59,-0.0495998281640134
2.595,-0.0499652867950518
2.6,-0.0503338302549191
2.605,-0.0507054933341217
2.61,-0.0510803112992266
2.615,-0.0514583198999628
2.62,-0.0518395553764132
2.625,-0.0522240544663458
2.63,-0.0526118544126531
2.635,-0.0530029929709118
2.64,-0.0533975084170625
2.645,-0.0537954395552327
2.65,-0.0541968257256686
2.655,-0.0546017068128081
2.66,-0.0550101232534685
2.665,-0.0554221160452013
2.67,-0.05583772675475
2.675,-0.0562569975266725
2.68,-0.0566799710920838
2.685,-0.0571066907775616
2.69,-0.0575372005141967
2.695,-0.0579715448467623
2.7,-0.0584097689430976
2.705,-0.0588519186035719
2.71,-0.059298040270771
2.715,-0.059748181039296
2.72,-0.0602023886657616
2.725,-0.0606607115789237
2.73,-0.0611231988900205
2.735,-0.0615899004032343
2.74,-0.0620608666263818
2.745,-0.062536148781728
2.75,-0.0630157988170318
2.755,-0.0634998694167361
2.76,-0.0639884140133778
2.765,-0.0644814867991554
2.77,-0.0649791427377217
2.775,-0.0654814375761627
2.78,-0.0659884278571672
2.785,-0.0665001709314161
2.79,-0.0670167249701798
2.795,-0.0675381489781151
2.8,-0.068064502806293
2.805,-0.068595847165441
2.81,-0.0691322436394003
2.815,-0.0696737546988353
2.82,-0.0702204437151351
2.825,-0.0707723749746106
2.83,-0.0713296136928556
2.835,-0.0718922260294297
2.84,-0.0724602791027422
2.845,-0.0730338410051939
2.85,-0.0736129808186007
2.855,-0.0741977686298542
2.86,-0.0747882755468709
2.865,-0.0753845737147965
2.87,-0.0759867363324996
2.875,-0.0765948376693421
2.88,-0.0772089530822388
2.885,-0.0778291590330094
2.89,-0.0784555331060355
2.895,-0.0790881540261984
2.9,-0.0797271016771583
2.905,-0.0803724571199156
2.91,-0.081024302611728
2.915,-0.0816827216253131
2.92,-0.082347798868412
2.925,-0.083019620303685
2.93,-0.0836982731689389
2.935,-0.0843838459977257
2.94,-0.0850764286402668
2.945,-0.0857761122847825
2.95,-0.0864829894791459
2.955,-0.0871971541529464
2.96,-0.0879187016399195
2.965,-0.08864772870077
2.97,-0.0893843335463931
2.975,-0.0901286158615094
2.98,-0.090880676828679
2.985,-0.0916406191527757
2.99,-0.0924085470858621
2.995,-0.0931845664525043
3,-0.093968784675531
