"Freq [GHz]","dB(S(ground_T1,ground_T1)) []"
2,-0.0208568561738166
2.005,-0.0210211075926224
2.01,-0.0211863673407007
2.015,-0.0213526440937769
2.02,-0.0215199466383471
2.025,-0.0216882838729824
2.03,-0.0218576648096682
2.035,-0.0220280985751347
2.04,-0.0221995944122308
2.045,-0.022372161681293
2.05,-0.022545809861548
2.055,-0.0227205485525245
2.06,-0.0228963874754944
2.065,-0.0230733364749153
2.07,-0.023251405519904
2.075,-0.0234306047057266
2.08,-0.0236109442553052
2.085,-0.0237924345207532
2.09,-0.0239750859849135
2.095,-0.0241589092629286
2.1,-0.0243439151038291
2.105,-0.024530114392141
2.11,-0.0247175181495142
2.115,-0.0249061375363702
2.12,-0.025095983853577
2.125,-0.0252870685441276
2.13,-0.0254794031948686
2.135,-0.0256729995382275
2.14,-0.0258678694539696
2.145,-0.0260640249709732
2.15,-0.0262614782690414
2.155,-0.0264602416807161
2.16,-0.026660327693135
2.165,-0.0268617489498928
2.17,-0.0270645182529504
2.175,-0.0272686485645333
2.18,-0.0274741530090972
2.185,-0.0276810448752813
2.19,-0.0278893376179045
2.195,-0.0280990448599866
2.2,-0.0283101803947886
2.205,-0.0285227581878849
2.21,-0.0287367923792542
2.215,-0.0289522972854067
2.22,-0.0291692874015302
2.225,-0.0293877774036701
2.23,-0.0296077821509228
2.235,-0.0298293166876795
2.24,-0.0300523962458791
2.245,-0.0302770362472947
2.25,-0.0305032523058524
2.255,-0.0307310602299826
2.26,-0.0309604760249791
2.265,-0.0311915158954312
2.27,-0.0314241962476318
2.275,-0.0316585336920582
2.28,-0.0318945450458676
2.285,-0.0321322473354287
2.29,-0.0323716577988688
2.295,-0.032612793888691
2.3,-0.0328556732743703
2.305,-0.0331003138450369
2.31,-0.0333467337121489
2.315,-0.033594951212234
2.32,-0.0338449849096372
2.325,-0.0340968535993198
2.33,-0.0343505763096852
2.335,-0.0346061723054532
2.34,-0.0348636610905444
2.345,-0.0351230624110385
2.35,-0.0353843962581262
2.355,-0.0356476828711371
2.36,-0.0359129427405783
2.365,-0.0361801966112257
2.37,-0.036449465485252
2.375,-0.036720770625382
2.38,-0.0369941335581115
2.385,-0.0372695760769314
2.39,-0.0375471202456368
2.395,-0.0378267884016314
2.4,-0.0381086031593144
2.405,-0.0383925874134651
2.41,-0.0386787643427205
2.415,-0.0389671574130532
2.42,-0.0392577903813211
2.425,-0.0395506872988404
2.43,-0.0398458725150234
2.435,-0.0401433706810372
2.44,-0.040443206753542
2.445,-0.0407454059984352
2.45,-0.0410499939946756
2.455,-0.0413569966381396
2.46,-0.0416664401455225
2.465,-0.0419783510583054
2.47,-0.04229275624675
2.475,-0.0426096829139559
2.48,-0.0429291585999678
2.485,-0.0432512111859263
2.49,-0.0435758688982765
2.495,-0.0439031603130312
2.5,-0.0442331143600808
2.505,-0.0445657603275571
2.51,-0.0449011278662486
2.515,-0.0452392469940871
2.52,-0.0455801481006659
2.525,-0.0459238619518281
2.53,-0.0462704196943122
2.535,-0.046619852860441
2.54,-0.0469721933728964
2.545,-0.0473274735495193
2.55,-0.0476857261081867
2.555,-0.0480469841717586
2.56,-0.0484112812730607
2.565,-0.0487786513599453
2.57,-0.0491491288004129
2.575,-0.0495227483877921
2.58,-0.0498995453459911
2.585,-0.0502795553347962
2.59,-0.0506628144552586
2.595,-0.0510493592551249
2.6,-0.0514392267343524
2.605,-0.0518324543506773
2.61,-0.0522290800252639
2.615,-0.0526291421484104
2.62,-0.0530326795853264
2.625,-0.0534397316819954
2.63,-0.0538503382710885
2.635,-0.0542645396779568
2.64,-0.0546823767267088
2.645,-0.0551038907463358
2.65,-0.0555291235769387
2.655,-0.0559581175760139
2.66,-0.0563909156248166
2.665,-0.0568275611348103
2.67,-0.0572680980541738
2.675,-0.0577125708744167
2.68,-0.0581610246370423
2.685,-0.0586135049403161
2.69,-0.0590700579460978
2.695,-0.0595307303867704
2.7,-0.0599955695722319
2.705,-0.0604646233969958
2.71,-0.0609379403473507
2.715,-0.0614155695086294
2.72,-0.0618975605725387
2.725,-0.0623839638446066
2.73,-0.0628748302516842
2.735,-0.0633702113495592
2.74,-0.0638701593306611
2.745,-0.0643747270318357
2.75,-0.0648839679422333
2.755,-0.0653979362112806
2.76,-0.0659166866567421
2.765,-0.0664402747728786
2.77,-0.0669687567387127
2.775,-0.0675021894263681
2.78,-0.0680406304095233
2.785,-0.0685841379719623
2.79,-0.0691327711162066
2.795,-0.0696865895722785
2.8,-0.0702456538065335
2.805,-0.0708100250306134
2.81,-0.0713797652104923
2.815,-0.0719549370756433
2.82,-0.0725356041282776
2.825,-0.0731218306527279
2.83,-0.0737136817249051
2.835,-0.0743112232218806
2.84,-0.0749145218315748
2.845,-0.0755236450625485
2.85,-0.0761386612539051
2.855,-0.0767596395853117
2.86,-0.0773866500871308
2.865,-0.0780197636506481
2.87,-0.0786590520384283
2.875,-0.0793045878948011
2.88,-0.0799564447564218
2.885,-0.0806146970629839
2.89,-0.0812794201680353
2.895,-0.081950690349909
2.9,-0.0826285848227778
2.905,-0.0833131817478315
2.91,-0.0840045602445675
2.915,-0.084702800402204
2.92,-0.0854079832912245
2.925,-0.0861201909750211
2.93,-0.0868395065217002
2.935,-0.0875660140159704
2.94,-0.0882997985711911
2.945,-0.0890409463415108
2.95,-0.0897895445341742
2.955,-0.0905456814219249
2.96,-0.0913094463555313
2.965,-0.0920809297764759
2.97,-0.0928602232297531
2.975,-0.0936474193767729
2.98,-0.0944426120084335
2.985,-0.095245896058318
2.99,-0.0960573676159883
2.995,-0.0968771239404603
3,-0.0977052634737718
