"Freq [GHz]","dB(S(ground_T1,ground_T1)) []"
2,-0.0143061786545851
2.005,-0.0143734934013538
2.01,-0.0144415883512889
2.015,-0.0145104719846345
2.02,-0.0145801529207312
2.025,-0.0146506399210053
2.03,-0.0147219418920277
2.035,-0.0147940678886567
2.04,-0.0148670271172858
2.045,-0.0149408289391633
2.05,-0.0150154828738361
2.055,-0.0150909986026669
2.06,-0.0151673859724696
2.065,-0.0152446549992482
2.07,-0.015322815872046
2.075,-0.0154018789569026
2.08,-0.0154818548009365
2.085,-0.0155627541365455
2.09,-0.0156445878857437
2.095,-0.0157273671645954
2.1,-0.0158111032878241
2.105,-0.0158958077735465
2.11,-0.0159814923481301
2.115,-0.0160681689512272
2.12,-0.0161558497409552
2.125,-0.0162445470992307
2.13,-0.0163342736372671
2.135,-0.016425042201254
2.14,-0.0165168658782166
2.145,-0.0166097580020315
2.15,-0.0167037321596702
2.155,-0.0167988021976094
2.16,-0.0168949822284635
2.165,-0.0169922866378249
2.17,-0.0170907300913173
2.175,-0.0171903275418849
2.18,-0.0172910942373129
2.185,-0.0173930457279961
2.19,-0.0174961978749612
2.195,-0.0176005668581471
2.2,-0.0177061691849672
2.205,-0.0178130216991491
2.21,-0.0179211415898759
2.215,-0.0180305464012252
2.22,-0.0181412540419301
2.225,-0.0182532827954746
2.23,-0.0183666513305226
2.235,-0.0184813787117146
2.24,-0.0185974844108279
2.245,-0.0187149883183083
2.25,-0.0188339107552438
2.255,-0.0189542724857003
2.26,-0.0190760947295277
2.265,-0.019199399175614
2.27,-0.0193242079955845
2.275,-0.0194505438580086
2.28,-0.019578429943104
2.285,-0.0197078899579933
2.29,-0.0198389481524575
2.295,-0.0199716293353174
2.3,-0.0201059588913955
2.305,-0.0202419627990691
2.31,-0.0203796676485132
2.315,-0.0205191006605963
2.32,-0.0206602897064807
2.325,-0.0208032633279666
2.33,-0.0209480507585832
2.335,-0.0210946819455024
2.34,-0.0212431875722693
2.345,-0.0213935990823984
2.35,-0.0215459487038947
2.355,-0.0217002694747088
2.36,-0.0218565952691754
2.365,-0.0220149608255164
2.37,-0.0221754017743781
2.375,-0.0223379546685459
2.38,-0.0225026570137929
2.385,-0.0226695473010019
2.39,-0.0228386650395481
2.395,-0.0230100507920484
2.4,-0.0231837462105145
2.405,-0.0233597940739968
2.41,-0.023538238327749
2.415,-0.023719124124047
2.42,-0.0239024978646808
2.425,-0.0240884072452293
2.43,-0.0242769013012026
2.435,-0.0244680304561379
2.44,-0.0246618465717377
2.445,-0.0248584030001632
2.45,-0.0250577546385714
2.455,-0.0252599579860272
2.46,-0.0254650712028902
2.465,-0.0256731541728134
2.47,-0.0258842685674812
2.475,-0.0260984779141979
2.48,-0.0263158476665503
2.485,-0.0265364452781892
2.49,-0.0267603402800003
2.495,-0.0269876043607521
2.5,-0.0272183114514708
2.505,-0.0274525378136851
2.51,-0.0276903621317858
2.515,-0.0279318656096885
2.52,-0.0281771320720545
2.525,-0.0284262480702919
2.53,-0.0286793029936275
2.535,-0.028936389185473
2.54,-0.0291976020654662
2.545,-0.0294630402573862
2.55,-0.0297328057233681
2.555,-0.0300070039047288
2.56,-0.0302857438697712
2.565,-0.0305691384689717
2.57,-0.0308573044979917
2.575,-0.031150362868932
2.58,-0.0314484387903431
2.585,-0.0317516619564595
2.59,-0.0320601667462621
2.595,-0.0323740924328852
2.6,-0.0326935834040422
2.605,-0.0330187893940903
2.61,-0.0333498657284835
2.615,-0.0336869735813122
2.62,-0.0340302802468187
2.625,-0.0343799594256396
2.63,-0.0347361915268288
2.635,-0.0350991639865424
2.64,-0.0354690716044974
2.645,-0.0358461168993431
2.65,-0.0362305104841201
2.655,-0.036622471463191
2.66,-0.0370222278519361
2.665,-0.0374300170208356
2.67,-0.0378460861654627
2.675,-0.038270692804185
2.68,-0.0387041053054186
2.685,-0.0391466034464643
2.69,-0.0395984790060714
2.695,-0.0400600363931069
2.7,-0.0405315933138125
2.705,-0.0410134814803902
2.71,-0.0415060473638432
2.715,-0.0420096529942734
2.72,-0.0425246768120197
2.725,-0.0430515145733772
2.73,-0.043590580314948
2.735,-0.0441423073808742
2.74,-0.0447071495178053
2.745,-0.0452855820426066
2.75,-0.0458781030884216
2.755,-0.0464852349351228
2.76,-0.0471075254306813
2.765,-0.0477455495106499
2.77,-0.0483999108234697
2.775,-0.0490712434701354
2.78,-0.0497602138674107
2.785,-0.0504675227447264
2.79,-0.0511939072857358
2.795,-0.0519401434266091
2.8,-0.0527070483242386
2.805,-0.0534954830087783
2.81,-0.0543063552364003
2.815,-0.0551406225595706
2.82,-0.0559992956339779
2.825,-0.0568834417830618
2.83,-0.0577941888432221
2.835,-0.0587327293151684
2.84,-0.0597003248493863
2.845,-0.0606983110967219
2.85,-0.0617281029582414
2.855,-0.0627912002722252
2.86,-0.0638891939801515
2.865,-0.0650237728181474
2.87,-0.066196730585415
2.875,-0.0674099740469681
2.88,-0.0686655315343678
2.885,-0.069965562315497
2.89,-0.0713123668125474
2.895,-0.0727083977566967
2.9,-0.0741562723783692
2.905,-0.0756587857439037
2.91,-0.0772189253628059
2.915,-0.0788398872051671
2.92,-0.0805250932861086
2.925,-0.0822782109940411
2.93,-0.0841031743620878
2.935,-0.086004207507948
2.94,-0.0879858504972039
2.945,-0.0900529879189879
2.95,-0.092210880502258
2.955,-0.0944652001459075
2.96,-0.0968220687881326
2.965,-0.0992881016006817
2.97,-0.101870455063394
2.975,-0.104576880555721
2.98,-0.107415784196119
2.985,-0.110396293770626
2.99,-0.113528333720477
2.995,-0.116822709309885
3,-0.120291201272291
