"Freq [GHz]","dB(S(ground_T1,ground_T1)) []"
2,-0.0172527018917114
2.005,-0.0173646469743891
2.01,-0.0174772271576049
2.015,-0.0175904534039519
2.02,-0.017704336647976
2.025,-0.0178188877977901
2.03,-0.017934117736682
2.035,-0.0180500373247451
2.04,-0.0181666574004892
2.045,-0.0182839887824842
2.05,-0.0184020422709991
2.055,-0.0185208286496591
2.06,-0.0186403586870818
2.065,-0.0187606431385768
2.07,-0.0188816927477964
2.075,-0.019003518248439
2.08,-0.0191261303659411
2.085,-0.0192495398191909
2.09,-0.0193737573222508
2.095,-0.0194987935860898
2.1,-0.0196246593203262
2.105,-0.0197513652350008
2.11,-0.0198789220423459
2.115,-0.020007340458566
2.12,-0.0201366312056541
2.125,-0.0202668050132109
2.13,-0.020397872620267
2.135,-0.0205298447771609
2.14,-0.020662732247376
2.145,-0.020796545809458
2.15,-0.0209312962589015
2.155,-0.0210669944100864
2.16,-0.0212036510982118
2.165,-0.0213412771812676
2.17,-0.0214798835420173
2.175,-0.0216194810899943
2.18,-0.0217600807635498
2.185,-0.0219016935318807
2.19,-0.0220443303971099
2.195,-0.0221880023963832
2.2,-0.0223327206039988
2.205,-0.0224784961335272
2.21,-0.0226253401400042
2.215,-0.02277326382211
2.22,-0.0229222784244069
2.225,-0.0230723952395765
2.23,-0.0232236256106983
2.235,-0.0233759809335576
2.24,-0.023529472658987
2.245,-0.0236841122952091
2.25,-0.0238399114102577
2.255,-0.0239968816343833
2.26,-0.0241550346625216
2.265,-0.0243143822567771
2.27,-0.0244749362489547
2.275,-0.0246367085431055
2.28,-0.0247997111181244
2.285,-0.0249639560303811
2.29,-0.0251294554163696
2.295,-0.0252962214954276
2.3,-0.0254642665724539
2.305,-0.0256336030406948
2.31,-0.0258042433845647
2.315,-0.0259762001824851
2.32,-0.0261494861097884
2.325,-0.0263241139416587
2.33,-0.0265000965561073
2.335,-0.0266774469369892
2.34,-0.0268561781770806
2.345,-0.0270363034811781
2.35,-0.0272178361692725
2.355,-0.0274007896797319
2.36,-0.0275851775725631
2.365,-0.0277710135327219
2.37,-0.0279583113734416
2.375,-0.0281470850396446
2.38,-0.0283373486113874
2.385,-0.0285291163073705
2.39,-0.0287224024884909
2.395,-0.0289172216614386
2.4,-0.0291135884823896
2.405,-0.0293115177607022
2.41,-0.0295110244627051
2.415,-0.0297121237155365
2.42,-0.0299148308110411
2.425,-0.030119161209713
2.43,-0.030325130544734
2.435,-0.0305327546260408
2.44,-0.0307420494444715
2.445,-0.0309530311759854
2.45,-0.0311657161859231
2.455,-0.0313801210333623
2.46,-0.0315962624755222
2.465,-0.0318141574722507
2.47,-0.0320338231905714
2.475,-0.0322552770093171
2.48,-0.0324785365238152
2.485,-0.0327036195506746
2.49,-0.0329305441326307
2.495,-0.0331593285434686
2.5,-0.0333899912930397
2.505,-0.0336225511323393
2.51,-0.0338570270586789
2.515,-0.0340934383209428
2.52,-0.0343318044249191
2.525,-0.0345721451387242
2.53,-0.0348144804983249
2.535,-0.0350588308131221
2.54,-0.0353052166716549
2.545,-0.0355536589473847
2.55,-0.0358041788045627
2.555,-0.0360567977042295
2.56,-0.0363115374102489
2.565,-0.0365684199955222
2.57,-0.0368274678482363
2.575,-0.0370887036782375
2.58,-0.0373521505235295
2.585,-0.0376178317568449
2.59,-0.0378857710923469
2.595,-0.0381559925924382
2.6,-0.0384285206746721
2.605,-0.0387033801187913
2.61,-0.0389805960738732
2.615,-0.0392601940656031
2.62,-0.039542200003654
2.625,-0.0398266401892011
2.63,-0.0401135413225549
2.635,-0.0404029305109294
2.64,-0.0406948352763244
2.645,-0.0409892835635483
2.65,-0.0412863037483856
2.655,-0.0415859246458778
2.66,-0.0418881755187611
2.665,-0.0421930860860313
2.67,-0.0425006865316652
2.675,-0.0428110075134787
2.68,-0.0431240801721387
2.685,-0.0434399361403263
2.69,-0.0437586075520453
2.695,-0.0440801270520974
2.7,-0.0444045278057086
2.705,-0.0447318435083329
2.71,-0.0450621083955983
2.715,-0.0453953572534371
2.72,-0.0457316254283874
2.725,-0.0460709488380504
2.73,-0.0464133639817559
2.735,-0.0467589079513709
2.74,-0.0471076184423282
2.745,-0.0474595337648135
2.75,-0.0478146928551559
2.755,-0.0481731352874012
2.76,-0.0485349012851066
2.765,-0.0489000317333001
2.77,-0.0492685681906719
2.775,-0.0496405529019601
2.78,-0.0500160288105524
2.785,-0.050395039571294
2.79,-0.0507776295635267
2.795,-0.0511638439043468
2.8,-0.0515537284620787
2.805,-0.0519473298699942
2.81,-0.052344695540255
2.815,-0.0527458736781048
2.82,-0.0531509132962871
2.825,-0.0535598642297352
2.83,-0.0539727771504905
2.835,-0.0543897035828958
2.84,-0.0548106959190191
2.845,-0.0552358074344057
2.85,-0.0556650923040107
2.855,-0.0560986056184913
2.86,-0.0565364034007263
2.865,-0.0569785426226497
2.87,-0.0574250812223446
2.875,-0.0578760781214766
2.88,-0.0583315932429696
2.885,-0.0587916875290507
2.89,-0.0592564229595572
2.895,-0.0597258625705896
2.9,-0.0602000704734715
2.905,-0.0606791118740509
2.91,-0.0611630530923181
2.915,-0.0616519615823985
2.92,-0.0621459059528453
2.925,-0.0626449559873248
2.93,-0.0631491826656516
2.935,-0.0636586581851652
2.94,-0.0641734559825165
2.945,-0.0646936507558127
2.95,-0.0652193184871472
2.955,-0.0657505364655299
2.96,-0.0662873833102159
2.965,-0.0668299389944441
2.97,-0.0673782848695846
2.975,-0.0679325036897133
2.98,-0.0684926796366167
2.985,-0.0690588983452295
2.99,-0.0696312469295236
2.995,-0.0702098140088605
3,-0.0707946897347771
