"Freq [GHz]","dB(S(ground_T1,ground_T1)) []"
2,-0.819791874859106
2.005,-0.520802586225107
2.01,-0.361735128178577
2.015,-0.267654155102796
2.02,-0.207585423322287
2.025,-0.166963389291806
2.03,-0.138239295695894
2.035,-0.117193933456998
2.04,-0.101322657518709
2.045,-0.0890638360063696
2.05,-0.0794033188571354
2.055,-0.0716594967834191
2.06,-0.065360631947446
2.065,-0.0601718653759612
2.07,-0.0558501928661332
2.075,-0.0522158089921891
2.08,-0.0491333598407489
2.085,-0.0464993756703382
2.09,-0.0442336612683212
2.095,-0.0422732815394261
2.1,-0.0405682854883682
2.105,-0.0390786172621714
2.11,-0.037771852060782
2.115,-0.0366215144461383
2.12,-0.0356058139037857
2.125,-0.0347066833821437
2.13,-0.0339090405746363
2.135,-0.0332002148467796
2.14,-0.03256949866517
2.145,-0.0320077935363406
2.15,-0.0315073283547662
2.155,-0.0310614337091745
2.16,-0.0306643597857673
2.165,-0.0303111284970446
2.17,-0.0299974126725384
2.175,-0.02971943679203
2.18,-0.0294738949772935
2.185,-0.0292578828938651
2.19,-0.0290688409282791
2.195,-0.0289045065548283
2.2,-0.0287628742304153
2.205,-0.028642161486736
2.21,-0.0285407801481215
2.215,-0.028457311807493
2.22,-0.0283904868548446
2.225,-0.0283391664815781
2.23,-0.0283023271872882
2.235,-0.028279047398774
2.24,-0.028268495878239
2.245,-0.0282699216521925
2.25,-0.0282826452371533
2.255,-0.0283060509746633
2.26,-0.0283395803181179
2.265,-0.0283827259386558
2.27,-0.0284350265378829
2.275,-0.0284960622721416
2.28,-0.0285654507073981
2.285,-0.0286428432355695
2.29,-0.0287279218931642
2.295,-0.0288203965315213
2.3,-0.0289200022949982
2.305,-0.0290264973694569
2.31,-0.0291396609685923
2.315,-0.0292592915298267
2.32,-0.0293852050954053
2.325,-0.029517233857321
2.33,-0.0296552248475273
2.335,-0.0297990387572289
2.34,-0.0299485488709878
2.345,-0.0301036401032222
2.35,-0.0302642081261257
2.355,-0.0304301585793199
2.36,-0.0306014063527898
2.365,-0.030777874935489
2.37,-0.0309594958230471
2.375,-0.0311462079786121
2.38,-0.0313379573415612
2.385,-0.0315346963794941
2.39,-0.0317363836792882
2.395,-0.0319429835735019
2.4,-0.0321544657988731
2.405,-0.0323708051838816
2.41,-0.0325919813627572
2.415,-0.0328179785135577
2.42,-0.033048785118153
2.425,-0.0332843937422012
2.43,-0.0335248008334015
2.435,-0.0337700065364389
2.44,-0.0340200145232239
2.445,-0.034274831837171
2.45,-0.0345344687503245
2.455,-0.0347989386323261
2.46,-0.0350682578302811
2.465,-0.0353424455586338
2.47,-0.0356215237983078
2.475,-0.0359055172043981
2.48,-0.036194453021761
2.485,-0.0364883610079186
2.49,-0.0367872733627724
2.495,-0.0370912246646007
2.5,-0.0374002518119165
2.505,-0.0377143939708022
2.51,-0.038033692527292
2.515,-0.0383581910445508
2.52,-0.0386879352244581
2.525,-0.0390229728733585
2.53,-0.039363353871725
2.535,-0.0397091301474697
2.54,-0.0400603556527051
2.545,-0.0404170863437671
2.55,-0.0407793801642859
2.555,-0.0411472970311635
2.56,-0.0415208988233055
2.565,-0.0419002493729513
2.57,-0.0422854144594858
2.575,-0.0426764618056171
2.58,-0.0430734610758074
2.585,-0.0434764838768556
2.59,-0.0438856037605488
2.595,-0.0443008962283065
2.6,-0.044722438737722
2.605,-0.0451503107109543
2.61,-0.045584593544898
2.615,-0.0460253706230739
2.62,-0.0464727273292029
2.625,-0.0469267510623877
2.63,-0.0473875312539006
2.635,-0.0478551593855038
2.64,-0.0483297290093051
2.645,-0.0488113357690729
2.65,-0.0493000774230388
2.655,-0.0497960538681207
2.66,-0.0502993671655678
2.665,-0.0508101215680235
2.67,-0.0513284235479442
2.675,-0.0518543818274437
2.68,-0.0523881074094588
2.685,-0.052929713610304
2.69,-0.0534793160935886
2.695,-0.0540370329054704
2.7,-0.054602984511288
2.705,-0.0551772938335381
2.71,-0.0557600862912208
2.715,-0.0563514898405562
2.72,-0.0569516350170611
2.725,-0.0575606549790378
2.73,-0.0581786855524327
2.735,-0.0588058652771052
2.74,-0.059442335454531
2.745,-0.0600882401969283
2.75,-0.0607437264778351
2.755,-0.0614089441841621
2.76,-0.0620840461697235
2.765,-0.0627691883102812
2.77,-0.0634645295601178
2.775,-0.0641702320101551
2.78,-0.0648864609476611
2.785,-0.06561338491754
2.79,-0.0663511757852511
2.795,-0.0671000088013991
2.8,-0.0678600626679821
2.805,-0.0686315196063589
2.81,-0.0694145654269693
2.815,-0.0702093896008033
2.82,-0.0710161853327011
2.825,-0.0718351496364713
2.83,-0.0726664834119028
2.835,-0.0735103915236611
2.84,-0.0743670828821524
2.845,-0.0752367705263648
2.85,-0.0761196717087284
2.855,-0.0770160079820318
2.86,-0.0779260052884596
2.865,-0.0788498940507499
2.87,-0.0797879092655651
2.875,-0.0807402905990455
2.88,-0.0817072824846986
2.885,-0.0826891342235495
2.89,-0.0836861000866759
2.895,-0.0846984394201775
2.9,-0.085726416752534
2.905,-0.0867703019045464
2.91,-0.0878303701017663
2.915,-0.0889069020895607
2.92,-0.0900001842508096
2.925,-0.0911105087263156
2.93,-0.0922381735379406
2.935,-0.0933834827145765
2.94,-0.094546746420923
2.945,-0.0957282810891928
2.95,-0.0969284095537716
2.955,-0.0981474611888599
2.96,-0.0993857720491864
2.965,-0.100643685013801
2.97,-0.101921549933052
2.975,-0.103219723778731
2.98,-0.10453857079749
2.985,-0.105878462667548
2.99,-0.10723977865875
2.995,-0.108622905795995
3,-0.11002823902612
