"Freq [GHz]","dB(S(ground_T1,ground_T1)) []"
2,-0.0145429497602418
2.005,-0.0146175159383418
2.01,-0.0146922237957135
2.015,-0.0147670999080651
2.02,-0.0148421705285012
2.025,-0.0149174615910758
2.03,-0.0149929987143468
2.035,-0.0150688072048999
2.04,-0.01514491206089
2.045,-0.0152213379755616
2.05,-0.0152981093407837
2.055,-0.015375250250556
2.06,-0.0154527845045434
2.065,-0.0155307356115954
2.07,-0.0156091267932726
2.075,-0.0156879809873764
2.08,-0.0157673208514859
2.085,-0.0158471687665089
2.09,-0.0159275468402233
2.095,-0.0160084769108506
2.1,-0.016089980550625
2.105,-0.0161720790693918
2.11,-0.0162547935181982
2.115,-0.0163381446929329
2.12,-0.0164221531379555
2.125,-0.0165068391497543
2.13,-0.01659222278064
2.135,-0.0166783238424437
2.14,-0.0167651619102515
2.145,-0.0168527563261584
2.15,-0.0169411262030658
2.155,-0.0170302904284877
2.16,-0.017120267668411
2.165,-0.0172110763711686
2.17,-0.017302734771376
2.175,-0.0173952608938687
2.18,-0.0174886725577167
2.185,-0.0175829873802615
2.19,-0.0176782227811934
2.195,-0.0177743959866815
2.2,-0.0178715240335594
2.205,-0.0179696237735411
2.21,-0.0180687118775048
2.215,-0.0181688048398225
2.22,-0.018269918982756
2.225,-0.0183720704608904
2.23,-0.0184752752656526
2.235,-0.0185795492298802
2.24,-0.0186849080324509
2.245,-0.0187913672029933
2.25,-0.0188989421266531
2.255,-0.0190076480489457
2.26,-0.0191175000806716
2.265,-0.0192285132029158
2.27,-0.0193407022721269
2.275,-0.0194540820252784
2.28,-0.0195686670851121
2.285,-0.0196844719654803
2.29,-0.0198015110767676
2.295,-0.0199197987314048
2.3,-0.0200393491494965
2.305,-0.0201601764645418
2.31,-0.0202822947292351
2.315,-0.020405717921414
2.32,-0.0205304599500909
2.325,-0.0206565346615892
2.33,-0.020783955845827
2.335,-0.0209127372426932
2.34,-0.0210428925485553
2.345,-0.0211744354229021
2.35,-0.0213073794950958
2.355,-0.0214417383712941
2.36,-0.0215775256414668
2.365,-0.0217147548865908
2.37,-0.0218534396859691
2.375,-0.021993593624721
2.38,-0.0221352303014003
2.385,-0.0222783633357926
2.39,-0.0224230063768735
2.395,-0.0225691731109279
2.4,-0.0227168772698464
2.405,-0.0228661326396053
2.41,-0.0230169530689131
2.415,-0.0231693524780637
2.42,-0.02332334486797
2.425,-0.0234789443293962
2.43,-0.0236361650524037
2.435,-0.0237950213359974
2.44,-0.0239555275979813
2.445,-0.0241176983850575
2.45,-0.0242815483831251
2.455,-0.0244470924278236
2.46,-0.0246143455153371
2.465,-0.0247833228133935
2.47,-0.024954039672569
2.475,-0.025126511637831
2.48,-0.0253007544603272
2.485,-0.0254767841094958
2.49,-0.0256546167854083
2.495,-0.0258342689314335
2.5,-0.02601575724718
2.505,-0.0261990987017643
2.51,-0.026384310547364
2.515,-0.0265714103331161
2.52,-0.0267604159193367
2.525,-0.0269513454920781
2.53,-0.0271442175780396
2.535,-0.0273390510598323
2.54,-0.0275358651916069
2.545,-0.0277346796150779
2.55,-0.0279355143759165
2.555,-0.0281383899405422
2.56,-0.0283433272133433
2.565,-0.0285503475542882
2.57,-0.0287594727970024
2.575,-0.0289707252672656
2.58,-0.0291841278019588
2.585,-0.0293997037685122
2.59,-0.0296174770847974
2.595,-0.0298374722395429
2.6,-0.0300597143132308
2.605,-0.0302842289995408
2.61,-0.0305110426273107
2.615,-0.0307401821830601
2.62,-0.0309716753340693
2.625,-0.0312055504520519
2.63,-0.0314418366374101
2.635,-0.0316805637441197
2.64,-0.0319217624052323
2.645,-0.032165464059032
2.65,-0.0324117009758592
2.655,-0.032660506285619
2.66,-0.0329119140059893
2.665,-0.033165959071354
2.67,-0.0334226773624837
2.675,-0.0336821057369793
2.68,-0.0339442820604869
2.685,-0.0342092452387495
2.69,-0.034477035250462
2.695,-0.0347476931809894
2.7,-0.0350212612569633
2.705,-0.0352977828817875
2.71,-0.0355773026720486
2.715,-0.0358598664949061
2.72,-0.0361455215064533
2.725,-0.0364343161910815
2.73,-0.0367263004018812
2.735,-0.0370215254021269
2.74,-0.0373200439078356
2.745,-0.0376219101314751
2.75,-0.0379271798268112
2.755,-0.0382359103349653
2.76,-0.0385481606317069
2.765,-0.0388639913759752
2.77,-0.0391834649597443
2.775,-0.0395066455591912
2.78,-0.0398335991872634
2.785,-0.040164393747649
2.79,-0.040499099090201
2.795,-0.0408377870678748
2.8,-0.0411805315952097
2.805,-0.0415274087083599
2.81,-0.0418784966268333
2.815,-0.0422338758168342
2.82,-0.042593629056387
2.825,-0.0429578415022265
2.83,-0.0433266007585295
2.835,-0.0436999969475251
2.84,-0.0440781227820655
2.845,-0.0444610736401806
2.85,-0.0448489476417108
2.855,-0.04524184572706
2.86,-0.0456398717381347
2.865,-0.0460431325015285
2.87,-0.0464517379140345
2.875,-0.0468658010305501
2.88,-0.0472854381544276
2.885,-0.0477107689303888
2.89,-0.0481419164400099
2.895,-0.0485790072999383
2.9,-0.0490221717628571
2.905,-0.0494715438213105
2.91,-0.0499272613144821
2.915,-0.0503894660379922
2.92,-0.0508583038568282
2.925,-0.0513339248215039
2.93,-0.0518164832875219
2.935,-0.0523061380382703
2.94,-0.0528030524114515
2.945,-0.0533073944291291
2.95,-0.0538193369315424
2.955,-0.0543390577147777
2.96,-0.0548667396724254
2.965,-0.0554025709413473
2.97,-0.0559467450516821
2.975,-0.0564994610812205
2.98,-0.0570609238142771
2.985,-0.057631343905234
2.99,-0.0582109380468518
2.995,-0.0587999291435388
3,-0.0593985464897313
