"Freq [GHz]","dB(S(ground_T1,ground_T1)) []"
2,-0.223307026929952
2.005,-0.244139832782484
2.01,-0.267969266198543
2.015,-0.295381021155735
2.02,-0.327107680728787
2.025,-0.364074198102123
2.03,-0.407460278640773
2.035,-0.458787032937258
2.04,-0.520038968162371
2.045,-0.593838175036006
2.05,-0.683696755847228
2.055,-0.794388299155202
2.06,-0.932503159487029
2.065,-1.10729141015818
2.07,-1.33196111955113
2.075,-1.62570204494452
2.08,-2.01686209524102
2.085,-2.54791668839646
2.09,-3.28304154489363
2.095,-4.31863914937207
2.1,-5.79283093380127
2.105,-7.8614081553015
2.11,-10.4263050488334
2.115,-11.931476504201
2.12,-10.3887311408776
2.125,-7.87931843601543
2.13,-5.87100276758508
2.135,-4.43784561182755
2.14,-3.42584002500605
2.145,-2.70208240356059
2.15,-2.17460997382768
2.155,-1.7823627939238
2.16,-1.48488585150415
2.165,-1.25508752491293
2.17,-1.07453859754339
2.175,-0.93048113697387
2.18,-0.813924383168675
2.185,-0.718421207412923
2.19,-0.639271193180974
2.195,-0.572993546229705
2.2,-0.516972850977948
2.205,-0.469217167208485
2.21,-0.428190260111237
2.215,-0.392693502784337
2.22,-0.3617815622586
2.225,-0.334701396212961
2.23,-0.310847557396998
2.235,-0.289729057145458
2.24,-0.270944524496497
2.245,-0.254163389111654
2.25,-0.239111487094002
2.255,-0.225559948405162
2.26,-0.21331654323403
2.265,-0.202218888137782
2.27,-0.192129071206217
2.275,-0.182929368990975
2.28,-0.174518810043295
2.285,-0.166810399857078
2.29,-0.159728866184824
2.295,-0.153208816513272
2.3,-0.147193224067936
2.305,-0.141632177269982
2.31,-0.136481841676004
2.315,-0.131703594232061
2.32,-0.127263297997824
2.325,-0.123130691953656
2.33,-0.119278875542167
2.335,-0.115683871550797
2.34,-0.112324254063852
2.345,-0.109180830689723
2.35,-0.106236370245246
2.355,-0.103475368663453
2.36,-0.100883847167476
2.365,-0.0984491777867426
2.37,-0.0961599321322063
2.375,-0.0940057500347569
2.38,-0.0919772252155794
2.385,-0.0900658056240008
2.39,-0.0882637064662833
2.395,-0.0865638342736049
2.4,-0.0849597206315779
2.405,-0.0834454644271301
2.41,-0.082015681669441
2.415,-0.0806654621163708
2.42,-0.0793903320908835
2.425,-0.0781862230060201
2.43,-0.0770494452316795
2.435,-0.0759766670272663
2.44,-0.0749648983186484
2.445,-0.0740114790914919
2.45,-0.0731140720585087
2.455,-0.0722706589511116
2.46,-0.0714795391380343
2.465,-0.0707393280313835
2.47,-0.0700489504864191
2.475,-0.0694076204786835
2.48,-0.0688147918053693
2.485,-0.0682700542708707
2.49,-0.0677729350435421
2.495,-0.0673225471328078
2.5,-0.0669170145076558
2.505,-0.066552619704923
2.51,-0.0662227129989888
2.515,-0.0659166577063785
2.52,-0.065619475991823
2.525,-0.0653131891049602
2.53,-0.0649805434147485
2.535,-0.0646103622968077
2.54,-0.0642018489231915
2.545,-0.0637649309020711
2.55,-0.0633162634224405
2.555,-0.0628735101501943
2.56,-0.0624510044519819
2.565,-0.062058048763972
2.57,-0.0616992722834128
2.575,-0.0613758907253057
2.58,-0.0610870250153445
2.585,-0.0608307167505399
2.59,-0.0606045888147378
2.595,-0.0604062245438261
2.6,-0.0602333593431876
2.605,-0.0600839602930621
2.61,-0.059956244545385
2.615,-0.0598486673875529
2.62,-0.0597598974314976
2.625,-0.0596887881740179
2.63,-0.0596343504514017
2.635,-0.0595957277279892
2.64,-0.0595721748156151
2.645,-0.0595630399690055
2.65,-0.0595677500206379
2.655,-0.0595857981276834
2.66,-0.0596167337046618
2.665,-0.0596601541566756
2.67,-0.0597156980824571
2.675,-0.0597830396714372
2.68,-0.0598618840688139
2.685,-0.0599519635253161
2.69,-0.060053034183903
2.695,-0.0601648733846931
2.7,-0.0602872773927508
2.705,-0.0604200594722406
2.71,-0.0605630482453627
2.715,-0.0607160862864614
2.72,-0.0608790289112083
2.725,-0.0610517431283843
2.73,-0.0612341067277716
2.735,-0.0614260074826485
2.74,-0.0616273424491116
2.745,-0.0618380173477227
2.75,-0.0620579460154702
2.755,-0.0622870499180117
2.76,-0.0625252577139625
2.765,-0.0627725048642344
2.77,-0.0630287332806229
2.775,-0.0632938910086998
2.78,-0.0635679319408736
2.785,-0.063850815556067
2.79,-0.0641425066829882
2.795,-0.0644429752844129
2.8,-0.0647521962602498
2.805,-0.0650701492674756
2.81,-0.0653968185552757
2.815,-0.0657321928139084
2.82,-0.0660762650360962
2.825,-0.0664290323897736
2.83,-0.0667904961012373
2.835,-0.0671606613478806
2.84,-0.0675395371596918
2.845,-0.0679271363288879
2.85,-0.0683234753270804
2.855,-0.0687285742294108
2.86,-0.0691424566452431
2.865,-0.0695651496548975
2.87,-0.0699966837521293
2.875,-0.0704370927919643
2.88,-0.0708864139435618
2.885,-0.0713446876478977
2.89,-0.0718119575799081
2.895,-0.0722882706149722
2.9,-0.0727736767994669
2.905,-0.0732682293251814
2.91,-0.0737719845075024
2.915,-0.074285001767144
2.92,-0.0748073436152935
2.925,-0.0753390756420853
2.93,-0.0758802665082292
2.935,-0.076430987939737
2.94,-0.076991314725626
2.945,-0.0775613247185128
2.95,-0.0781410988380442
2.955,-0.0787307210770563
2.96,-0.0793302785104394
2.965,-0.079939861306632
2.97,-0.0805595627417003
2.975,-0.0811894792159409
2.98,-0.0818297102730232
2.985,-0.0824803586215592
2.99,-0.0831415301591655
2.995,-0.0838133339988978
3,-0.084495882498131
