"Freq [GHz]","dB(S(ground_T1,ground_T1)) []"
2,-0.0166527364298154
2.005,-0.0165699154528974
2.01,-0.0165033476273561
2.015,-0.0164522822329223
2.02,-0.016415995302945
2.025,-0.0163937887194307
2.03,-0.0163849893441112
2.035,-0.0163889481839873
2.04,-0.0164050395897689
2.045,-0.0164326604857311
2.05,-0.0164712296295892
2.055,-0.0165201869010872
2.06,-0.016578992617985
2.065,-0.0166471268782846
2.07,-0.0167240889275287
2.075,-0.0168093965500996
2.08,-0.0169025854834429
2.085,-0.0170032088542906
2.09,-0.0171108366358854
2.095,-0.0172250551253533
2.1,-0.0173454664403448
2.105,-0.0174716880341554
2.11,-0.0176033522285327
2.115,-0.0177401057634452
2.12,-0.0178816093631177
2.125,-0.0180275373176225
2.13,-0.0181775770794556
2.135,-0.0183314288744073
2.14,-0.018488805326217
2.145,-0.018649431094415
2.15,-0.0188130425248289
2.155,-0.0189793873122466
2.16,-0.0191482241747657
2.165,-0.0193193225393518
2.17,-0.019492462238168
2.175,-0.0196674332152478
2.18,-0.0198440352431335
2.185,-0.0200220776490391
2.19,-0.0202013790502385
2.195,-0.0203817670982715
2.2,-0.0205630782316476
2.205,-0.0207451574367284
2.21,-0.0209278580164704
2.215,-0.0211110413667481
2.22,-0.021294576759934
2.225,-0.0214783411355228
2.23,-0.0216622188974709
2.235,-0.0218461017180663
2.24,-0.0220298883480421
2.245,-0.0222134844327235
2.25,-0.022396802333983
2.255,-0.0225797609577981
2.26,-0.0227622855872023
2.265,-0.0229443077204417
2.27,-0.0231257649141433
2.275,-0.0233066006313073
2.28,-0.0234867640939824
2.285,-0.0236662101404238
2.29,-0.0238448990866006
2.295,-0.0240227965918759
2.3,-0.0241998735287397
2.305,-0.0243761058564377
2.31,-0.0245514744983462
2.315,-0.0247259652230136
2.32,-0.0248995685286836
2.325,-0.0250722795312049
2.33,-0.0252440978552249
2.335,-0.0254150275285535
2.34,-0.0255850768795355
2.345,-0.0257542584374272
2.35,-0.0259225888355795
2.355,-0.0260900887174106
2.36,-0.0262567826450078
2.365,-0.0264226990103219
2.37,-0.0265878699488484
2.375,-0.0267523312557103
2.38,-0.0269161223040568
2.385,-0.0270792859657418
2.39,-0.0272418685341363
2.395,-0.0274039196490697
2.4,-0.0275654922238133
2.405,-0.0277266423740196
2.41,-0.0278874293485476
2.415,-0.0280479154621832
2.42,-0.0282081660300943
2.425,-0.0283682493040442
2.43,-0.0285282364102544
2.435,-0.0286882012888928
2.44,-0.0288482206351462
2.445,-0.0290083738417726
2.45,-0.0291687429431505
2.455,-0.0293294125607442
2.46,-0.0294904698499342
2.465,-0.0296520044481793
2.47,-0.0298141084244982
2.475,-0.0299768762301661
2.48,-0.0301404046506255
2.485,-0.0303047927586031
2.49,-0.0304701418683214
2.495,-0.0306365554908309
2.5,-0.0308041392904083
2.505,-0.0309730010419808
2.51,-0.0311432505895534
2.515,-0.0313149998056064
2.52,-0.0314883625514286
2.525,-0.0316634546383628
2.53,-0.0318403937899295
2.535,-0.0320192996048097
2.54,-0.0322002935206428
2.545,-0.0323834987786452
2.55,-0.0325690403889899
2.555,-0.0327570450969323
2.56,-0.0329476413496928
2.565,-0.033140959264024
2.57,-0.0333371305944494
2.575,-0.0335362887022033
2.58,-0.0337385685247802
2.585,-0.0339441065461195
2.59,-0.0341530407673868
2.595,-0.0343655106783509
2.6,-0.0345816572293087
2.605,-0.0348016228035767
2.61,-0.0350255511904881
2.615,-0.0352535875589426
2.62,-0.0354858784313981
2.625,-0.0357225716584125
2.63,-0.0359638163935787
2.635,-0.0362097630689796
2.64,-0.0364605633710189
2.645,-0.0367163702167316
2.65,-0.0369773377304597
2.655,-0.037243621220941
2.66,-0.0375153771587968
2.665,-0.037792763154357
2.67,-0.0380759379358743
2.675,-0.0383650613280725
2.68,-0.0386602942310275
2.685,-0.0389617985993845
2.69,-0.0392697374218737
2.695,-0.0395842747011433
2.7,-0.0399055754338802
2.705,-0.0402338055912101
2.71,-0.0405691320993785
2.715,-0.0409117228206946
2.72,-0.041261746534715
2.725,-0.0416193729197026
2.73,-0.0419847725343107
2.735,-0.0423581167994644
2.74,-0.0427395779805268
2.745,-0.0431293291696248
2.75,-0.0435275442682008
2.755,-0.0439343979697692
2.76,-0.044350065742849
2.765,-0.0447747238140868
2.77,-0.0452085491515636
2.775,-0.0456517194482619
2.78,-0.0461044131056981
2.785,-0.0465668092177151
2.79,-0.0470390875544317
2.795,-0.0475214285463259
2.8,-0.0480140132684645
2.805,-0.0485170234248623
2.81,-0.0490306413329836
2.815,-0.0495550499083428
2.82,-0.0500904326492455
2.825,-0.0506369736216349
2.83,-0.0511948574440355
2.835,-0.0517642692726152
2.84,-0.0523453947863534
2.845,-0.0529384201722633
2.85,-0.0535435321107551
2.855,-0.0541609177610505
2.86,-0.0547907647466932
2.865,-0.0554332611411346
2.87,-0.0560885954533848
2.875,-0.0567569566137519
2.88,-0.0574385339596263
2.885,-0.0581335172213519
2.89,-0.0588420965081272
2.895,-0.0595644622939899
2.9,-0.0603008054038442
2.905,-0.0610513169995303
2.91,-0.0618161885659527
2.915,-0.0625956118972453
2.92,-0.0633897790829877
2.925,-0.0641988824944376
2.93,-0.0650231147708298
2.935,-0.0658626688056847
2.94,-0.0667177377331532
2.945,-0.0675885149144045
2.95,-0.0684751939240135
2.955,-0.0693779685364019
2.96,-0.070297032712271
2.965,-0.0712325805850942
2.97,-0.0721848064475756
2.975,-0.0731539047381741
2.98,-0.0741400700276127
2.985,-0.075143497005414
2.99,-0.0761643804664326
2.995,-0.077202915297409
3,-0.0782592964635461
