"Freq [GHz]","dB(S(ground_T1,ground_T1)) []"
2,-0.0140005107419467
2.005,-0.0140586627141315
2.01,-0.0141174691011779
2.015,-0.0141769364349572
2.02,-0.0142370713474405
2.025,-0.0142978805727355
2.03,-0.0143593709492062
2.035,-0.014421549421639
2.04,-0.0144844230434871
2.045,-0.0145479989791671
2.05,-0.0146122845064369
2.055,-0.0146772870188287
2.06,-0.0147430140281673
2.065,-0.0148094731671697
2.07,-0.0148766721921044
2.075,-0.0149446189855446
2.08,-0.015013321559204
2.085,-0.0150827880568575
2.09,-0.0151530267573534
2.095,-0.0152240460777148
2.1,-0.0152958545763392
2.105,-0.0153684609563154
2.11,-0.0154418740688044
2.115,-0.0155161029165654
2.12,-0.0155911566575784
2.125,-0.0156670446087802
2.13,-0.0157437762499203
2.135,-0.0158213612275502
2.14,-0.0158998093591217
2.145,-0.0159791306372495
2.15,-0.0160593352340791
2.155,-0.0161404335058167
2.16,-0.0162224359974079
2.165,-0.0163053534473691
2.17,-0.0163891967927696
2.175,-0.0164739771744046
2.18,-0.0165597059421131
2.185,-0.0166463946602973
2.19,-0.0167340551136219
2.195,-0.0168226993129064
2.2,-0.0169123395012171
2.205,-0.0170029881601824
2.21,-0.0170946580165108
2.215,-0.0171873620487487
2.22,-0.0172811134942647
2.225,-0.0173759258564911
2.23,-0.0174718129124092
2.235,-0.0175687887203108
2.24,-0.0176668676278417
2.245,-0.0177660642803186
2.25,-0.0178663936293575
2.255,-0.0179678709418172
2.26,-0.0180705118090733
2.265,-0.0181743321566145
2.27,-0.0182793482540126
2.275,-0.0183855767252666
2.28,-0.0184930345595093
2.285,-0.0186017391221436
2.29,-0.0187117081663814
2.295,-0.0188229598452322
2.3,-0.0189355127239422
2.305,-0.0190493857929178
2.31,-0.0191645984811418
2.315,-0.0192811706701299
2.32,-0.0193991227083987
2.325,-0.0195184754265331
2.33,-0.0196392501528487
2.335,-0.019761468729654
2.34,-0.0198851535301821
2.345,-0.0200103274762073
2.35,-0.0201370140563589
2.355,-0.0202652373451941
2.36,-0.0203950220230434
2.365,-0.020526393396688
2.37,-0.0206593774208717
2.375,-0.0207940007207384
2.38,-0.0209302906151777
2.385,-0.0210682751411914
2.39,-0.021207983079268
2.395,-0.0213494439798489
2.4,-0.0214926881909402
2.405,-0.0216377468869137
2.41,-0.0217846520985577
2.415,-0.0219334367444422
2.42,-0.0220841346636861
2.425,-0.0222367806501383
2.43,-0.0223914104881378
2.435,-0.0225480609898214
2.44,-0.0227067700341733
2.445,-0.022867576607799
2.45,-0.0230305208476142
2.455,-0.0231956440854602
2.46,-0.0233629888948144
2.465,-0.023532599139679
2.47,-0.0237045200257427
2.475,-0.0238787981540065
2.48,-0.0240554815769178
2.485,-0.0242346198572231
2.49,-0.0244162641296667
2.495,-0.0246004671656539
2.5,-0.0247872834411217
2.505,-0.0249767692077141
2.51,-0.0251689825675226
2.515,-0.0253639835515325
2.52,-0.0255618342020232
2.525,-0.0257625986591757
2.53,-0.025966343252027
2.535,-0.0261731365941776
2.54,-0.0263830496844027
2.545,-0.0265961560125301
2.55,-0.0268125316708617
2.555,-0.0270322554715063
2.56,-0.0272554090699678
2.565,-0.0274820770953432
2.57,-0.0277123472875999
2.575,-0.0279463106423083
2.58,-0.0281840615633264
2.585,-0.0284256980239608
2.59,-0.0286713217370792
2.595,-0.0289210383348072
2.6,-0.0291749575584064
2.605,-0.0294331934589811
2.61,-0.0296958646097454
2.615,-0.0299630943306088
2.62,-0.0302350109258878
2.625,-0.0305117479360386
2.63,-0.0307934444043577
2.635,-0.0310802451596711
2.64,-0.0313723011161013
2.645,-0.0316697695911277
2.65,-0.031972814643168
2.655,-0.0322816074301289
2.66,-0.0325963265903414
2.665,-0.0329171586475655
2.67,-0.0332442984417442
2.675,-0.0335779495874175
2.68,-0.0339183249618469
2.685,-0.0342656472250293
2.69,-0.034620149374038
2.695,-0.0349820753342413
2.7,-0.0353516805902548
2.705,-0.0357292328596916
2.71,-0.0361150128130334
2.715,-0.0365093148432601
2.72,-0.0369124478891808
2.725,-0.0373247363167839
2.73,-0.0377465208633081
2.735,-0.038178159649144
2.74,-0.0386200292631982
2.745,-0.0390725259278333
2.75,-0.0395360667500912
2.755,-0.0400110910665761
2.76,-0.0404980618900087
2.765,-0.0409974674663587
2.77,-0.0415098229522225
2.775,-0.0420356722231546
2.78,-0.0425755898247406
2.785,-0.0431301830793217
2.79,-0.0437000943627002
2.795,-0.0442860035666403
2.8,-0.044888630764533
2.805,-0.0455087390996166
2.81,-0.0461471379171118
2.815,-0.0468046861639589
2.82,-0.0474822960825664
2.825,-0.0481809372278119
2.83,-0.0489016408398729
2.835,-0.0496455046092829
2.84,-0.0504136978746735
2.845,-0.0512074672985402
2.85,-0.0520281430717106
2.855,-0.0528771457032806
2.86,-0.0537559934597477
2.865,-0.0546663105249067
2.87,-0.0556098359611174
2.875,-0.0565884335626726
2.88,-0.0576041027038165
2.885,-0.0586589902972452
2.89,-0.0597554039943696
2.895,-0.0608958267761198
2.9,-0.0620829331035566
2.905,-0.0633196068207998
2.91,-0.0646089610299144
2.915,-0.0659543601887508
2.92,-0.0673594447190218
2.925,-0.068828158454234
2.93,-0.0703647793063554
2.935,-0.0719739535876619
2.94,-0.0736607344916426
2.945,-0.0754306253159563
2.95,-0.0772896281036163
2.955,-0.0792442984883737
2.96,-0.0813018076604051
2.965,-0.0834700125224778
2.97,-0.085757535290385
2.975,-0.088173854010254
2.98,-0.0907294057274092
2.985,-0.0934357043559941
2.99,-0.0963054756774371
2.995,-0.0993528123537662
3,-0.102593352396967
