"Freq [GHz]","dB(S(ground_T1,ground_T1)) []"
2,-0.0141324574164185
2.005,-0.0141844751981548
2.01,-0.0142370741694626
2.015,-0.0142902599024151
2.02,-0.0143440380354009
2.025,-0.0143984142742875
2.03,-0.0144533943936145
2.035,-0.0145089842378147
2.04,-0.0145651897224732
2.045,-0.0146220168356148
2.05,-0.0146794716390243
2.055,-0.0147375602696017
2.06,-0.0147962889407409
2.065,-0.0148556639437847
2.07,-0.0149156916494589
2.075,-0.0149763785093886
2.08,-0.0150377310576419
2.085,-0.0150997559123124
2.09,-0.0151624597771401
2.095,-0.0152258494431894
2.1,-0.0152899317905577
2.105,-0.015354713790142
2.11,-0.0154202025054469
2.115,-0.0154864050944475
2.12,-0.015553328811499
2.125,-0.0156209810092978
2.13,-0.0156893691409088
2.135,-0.0157585007618368
2.14,-0.0158283835321586
2.145,-0.0158990252187281
2.15,-0.0159704336974244
2.155,-0.016042616955481
2.16,-0.016115583093875
2.165,-0.0161893403297786
2.17,-0.0162638969990999
2.175,-0.0163392615590847
2.18,-0.0164154425909891
2.185,-0.0164924488028538
2.19,-0.0165702890323366
2.195,-0.0166489722496398
2.2,-0.0167285075605364
2.205,-0.0168089042094558
2.21,-0.0168901715827048
2.215,-0.0169723192117601
2.22,-0.0170553567766541
2.225,-0.0171392941094901
2.23,-0.0172241411980565
2.235,-0.0173099081895477
2.24,-0.0173966053944009
2.245,-0.017484243290263
2.25,-0.0175728325260764
2.255,-0.0176623839262916
2.26,-0.0177529084952263
2.265,-0.0178444174215472
2.27,-0.017936922082912
2.275,-0.0180304340507612
2.28,-0.0181249650952403
2.285,-0.0182205271903254
2.29,-0.0183171325190843
2.295,-0.0184147934791284
2.3,-0.0185135226882364
2.305,-0.018613332990174
2.31,-0.0187142374606995
2.315,-0.0188162494137936
2.32,-0.0189193824080736
2.325,-0.019023650253444
2.33,-0.0191290670179663
2.335,-0.0192356470349845
2.34,-0.0193434049104683
2.345,-0.0194523555306397
2.35,-0.0195625140698532
2.355,-0.0196738959987554
2.36,-0.0197865170927369
2.365,-0.0199003934406847
2.37,-0.0200155414540476
2.375,-0.0201319778762341
2.38,-0.020249719792336
2.385,-0.0203687846392191
2.39,-0.020489190215987
2.395,-0.0206109546948155
2.4,-0.0207340966322006
2.405,-0.0208586349806205
2.41,-0.0209845891006305
2.415,-0.0211119787734267
2.42,-0.0212408242138601
2.425,-0.0213711460839883
2.43,-0.0215029655070892
2.435,-0.0216363040822659
2.44,-0.0217711838995902
2.445,-0.0219076275558346
2.45,-0.0220456581708309
2.455,-0.0221852994044723
2.46,-0.0223265754743764
2.465,-0.0224695111742643
2.47,-0.0226141318930668
2.475,-0.0227604636348081
2.48,-0.0229085330392826
2.485,-0.0230583674035939
2.49,-0.0232099947045575
2.495,-0.0233634436220196
2.5,-0.0235187435631837
2.505,-0.0236759246878975
2.51,-0.023835017935043
2.515,-0.0239960550500161
2.52,-0.0241590686133832
2.525,-0.0243240920707514
2.53,-0.0244911597639334
2.535,-0.0246603069634526
2.54,-0.0248315699024627
2.545,-0.0250049858121403
2.55,-0.0251805929586579
2.555,-0.0253584306817736
2.56,-0.0255385394351461
2.565,-0.0257209608284545
2.57,-0.025905737671429
2.575,-0.0260929140198573
2.58,-0.0262825352237217
2.585,-0.0264746479775234
2.59,-0.0266693003729426
2.595,-0.0268665419539545
2.6,-0.0270664237745288
2.605,-0.0272689984590391
2.61,-0.0274743202655485
2.615,-0.0276824451521134
2.62,-0.0278934308462876
2.625,-0.0281073369179736
2.63,-0.0283242248558314
2.635,-0.0285441581474453
2.64,-0.0287672023634367
2.645,-0.0289934252457625
2.65,-0.0292228968004444
2.655,-0.0294556893949629
2.66,-0.0296918778605903
2.665,-0.0299315395999812
2.67,-0.0301747547002582
2.675,-0.0304216060520047
2.68,-0.0306721794744403
2.685,-0.0309265638471913
2.69,-0.0311848512490419
2.695,-0.0314471371040744
2.7,-0.0317135203356779
2.705,-0.0319841035288897
2.71,-0.0322589931015907
2.715,-0.0325382994850971
2.72,-0.0328221373147693
2.725,-0.0331106256312498
2.73,-0.0334038880929821
2.735,-0.0337020532008148
2.74,-0.0340052545353933
2.745,-0.0343136310082167
2.75,-0.0346273271272581
2.755,-0.0349464932780908
2.76,-0.0352712860216076
2.765,-0.0356018684093925
2.77,-0.0359384103179773
2.775,-0.0362810888032981
2.78,-0.0366300884766943
2.785,-0.03698560190401
2.79,-0.0373478300293684
2.795,-0.0377169826254385
2.8,-0.0380932787719825
2.805,-0.0384769473648513
2.81,-0.0388682276575347
2.815,-0.0392673698377228
2.82,-0.0396746356414438
2.825,-0.0400902990075836
2.83,-0.0405146467758646
2.835,-0.0409479794315169
2.84,-0.0413906119003378
2.845,-0.0418428743979294
2.85,-0.0423051133374283
2.855,-0.042777692300332
2.86,-0.0432609930754256
2.865,-0.0437554167713149
2.87,-0.0442613850085501
2.875,-0.0447793411978655
2.88,-0.045309751911668
2.885,-0.0458531083565843
2.89,-0.046409927955655
2.895,-0.0469807560494672
2.9,-0.0475661677265795
2.905,-0.0481667697944398
2.91,-0.0487832029032885
2.915,-0.0494161438365456
2.92,-0.0500663079828189
2.925,-0.0507344520059543
2.93,-0.0514213767314809
2.935,-0.0521279302694764
2.94,-0.052855011396237
2.945,-0.0536035732193123
2.95,-0.0543746271532602
2.955,-0.0551692472364064
2.96,-0.0559885748222151
2.965,-0.0568338236827276
2.97,-0.0577062855656241
2.975,-0.0586073362514095
2.98,-0.0595384421624248
2.985,-0.06050116758161
2.99,-0.06149718254576
2.995,-0.0625282714858458
3,-0.0635963426958213
