"Freq [GHz]","dB(S(ground_T1,ground_T1)) []"
2,-0.0251496569543134
2.005,-0.0254264960386941
2.01,-0.0257069745221002
2.015,-0.0259911443191091
2.02,-0.0262790586297767
2.025,-0.0265707719708918
2.03,-0.026866340208241
2.035,-0.0271658205898367
2.04,-0.0274692717801665
2.045,-0.0277767538955199
2.05,-0.0280883285404104
2.055,-0.0284040588451251
2.06,-0.0287240095044492
2.065,-0.0290482468176096
2.07,-0.0293768387294696
2.075,-0.0297098548730294
2.08,-0.0300473666132577
2.085,-0.0303894470923299
2.09,-0.0307361712763055
2.095,-0.0310876160032832
2.1,-0.031443860033121
2.105,-0.0318049840987427
2.11,-0.0321710709591041
2.115,-0.0325422054538948
2.12,-0.0329184745599778
2.125,-0.0332999674497188
2.13,-0.0336867755512034
2.135,-0.0340789926104486
2.14,-0.0344767147556417
2.145,-0.0348800405635645
2.15,-0.0352890711281612
2.155,-0.0357039101314613
2.16,-0.0361246639168395
2.165,-0.0365514415647784
2.17,-0.0369843549711599
2.175,-0.0374235189282522
2.18,-0.0378690512084392
2.185,-0.0383210726508274
2.19,-0.0387797072508297
2.195,-0.0392450822528616
2.2,-0.0397173282462218
2.205,-0.0401965792643631
2.21,-0.0406829728875965
2.215,-0.0411766503494315
2.22,-0.0416777566466786
2.225,-0.0421864406534413
2.23,-0.0427028552391876
2.235,-0.043227157391054
2.24,-0.0437595083405323
2.245,-0.0443000736947556
2.25,-0.0448490235725459
2.255,-0.0454065327454221
2.26,-0.0459727807837927
2.265,-0.0465479522085148
2.27,-0.047132236648076
2.275,-0.0477258290016262
2.28,-0.0483289296080919
2.285,-0.0489417444216506
2.29,-0.049564485193824
2.295,-0.0501973696624747
2.3,-0.0508406217480324
2.305,-0.0514944717571909
2.31,-0.0521591565944939
2.315,-0.0528349199820844
2.32,-0.0535220126879994
2.325,-0.0542206927634121
2.33,-0.0549312257891657
2.335,-0.0556538851320708
2.34,-0.0563889522113626
2.345,-0.0571367167758018
2.35,-0.0578974771918934
2.355,-0.0586715407437198
2.36,-0.059459223944956
2.365,-0.0602608528635709
2.37,-0.0610767634598707
2.375,-0.0619073019384514
2.38,-0.062752825114745
2.385,-0.0636137007968264
2.39,-0.0644903081832211
2.395,-0.0653830382774696
2.4,-0.0662922943202463
2.405,-0.067218492239891
2.41,-0.0681620611222278
2.415,-0.0691234437006389
2.42,-0.0701030968673405
2.425,-0.0711014922069734
2.43,-0.0721191165535264
2.435,-0.0731564725718575
2.44,-0.0742140793649517
2.445,-0.075292473108283
2.45,-0.0763922077125999
2.455,-0.0775138555166524
2.46,-0.0786580080113101
2.465,-0.0798252765967853
2.47,-0.0810162933746032
2.475,-0.0822317119761848
2.48,-0.0834722084299333
2.485,-0.0847384820688981
2.49,-0.0860312564811286
2.495,-0.0873512805050508
2.5,-0.0886993292722369
2.505,-0.0900762053002086
2.51,-0.0914827396379149
2.515,-0.0929197930668637
2.52,-0.0943882573608902
2.525,-0.09588905660791
2.53,-0.0974231485970409
2.535,-0.0989915262748191
2.54,-0.100595219274419
2.545,-0.102235295521997
2.55,-0.103912862924655
2.555,-0.105629071144637
2.56,-0.107385113464862
2.565,-0.109182228751081
2.57,-0.111021703516333
2.575,-0.112904874093821
2.58,-0.114833128924605
2.585,-0.116807910967047
2.59,-0.118830720235346
2.595,-0.120903116475033
2.6,-0.123026721983808
2.605,-0.125203224586647
2.61,-0.127434380774824
2.615,-0.129722019019033
2.62,-0.132068043267606
2.625,-0.134474436641525
2.63,-0.136943265338813
2.635,-0.139476682761744
2.64,-0.14207693388128
2.645,-0.144746359854216
2.65,-0.147487402909588
2.655,-0.150302611522161
2.66,-0.153194645892064
2.665,-0.156166283751147
2.67,-0.159220426518057
2.675,-0.16236010582577
2.68,-0.165588490447072
2.685,-0.168908893645455
2.69,-0.172324780980935
2.695,-0.175839778602668
2.7,-0.179457682062645
2.705,-0.183182465687459
2.71,-0.187018292548083
2.715,-0.190969525070659
2.72,-0.195040736334912
2.725,-0.19923672211035
2.73,-0.203562513684654
2.735,-0.208023391542915
2.74,-0.212624899961405
2.745,-0.217372862584607
2.75,-0.222273399060081
2.755,-0.22733294281197
2.76,-0.2325582600407
2.765,-0.237956470043883
2.77,-0.243535066961565
2.775,-0.249301943057751
2.78,-0.25526541365986
2.785,-0.2614342438883
2.79,-0.26781767731993
2.795,-0.274425466741785
2.8,-0.281267907165327
2.805,-0.288355871286495
2.81,-0.295700847593567
2.815,-0.303314981342809
2.82,-0.311211118641858
2.825,-0.319402853902482
2.83,-0.327904580948245
2.835,-0.336731548088631
2.84,-0.345899917499817
2.845,-0.355426829283619
2.85,-0.365330470610367
2.855,-0.375630150389018
2.86,-0.386346379948973
2.865,-0.397500960262822
2.87,-0.409117076288568
2.875,-0.421219399063282
2.88,-0.433834196238817
2.885,-0.44698945181384
2.89,-0.460714995885853
2.895,-0.475042645322093
2.9,-0.490006356329815
2.905,-0.505642389994581
2.91,-0.521989491950003
2.915,-0.539089087444214
2.92,-0.556985493176918
2.925,-0.575726147396012
2.93,-0.595361859864098
2.935,-0.615947083431578
2.94,-0.637540209083249
2.945,-0.660203886457289
2.95,-0.684005371966199
2.955,-0.709016906774928
2.96,-0.735316127006207
2.965,-0.762986508640006
2.97,-0.792117849643156
2.975,-0.822806791893723
2.98,-0.855157385435908
2.985,-0.88928169749346
2.99,-0.925300468454439
2.995,-0.963343816681562
3,-1.00355199345372
