"Freq [GHz]","dB(S(ground_T1,ground_T1)) []"
2,-0.0146696365767538
2.005,-0.0147432818383573
2.01,-0.0148177154729695
2.015,-0.0148929468383312
2.02,-0.0149689854367773
2.025,-0.0150458409183692
2.03,-0.0151235230841045
2.035,-0.0152020418892475
2.04,-0.0152814074467204
2.045,-0.0153616300305968
2.05,-0.0154427200796977
2.055,-0.0155246882012913
2.06,-0.0156075451748674
2.065,-0.0156913019560617
2.07,-0.0157759696806599
2.075,-0.015861559668719
2.08,-0.0159480834288186
2.085,-0.0160355526624262
2.09,-0.016123979268378
2.095,-0.0162133753475094
2.1,-0.0163037532074059
2.105,-0.016395125367305
2.11,-0.0164875045631101
2.115,-0.0165809037526014
2.12,-0.0166753361207582
2.125,-0.0167708150852606
2.13,-0.0168673543021543
2.135,-0.0169649676716733
2.14,-0.0170636693442471
2.145,-0.0171634737266984
2.15,-0.0172643954886118
2.155,-0.017366449568899
2.16,-0.0174696511825879
2.165,-0.0175740158277947
2.17,-0.0176795592929203
2.175,-0.0177862976640777
2.18,-0.0178942473327493
2.185,-0.0180034250036748
2.19,-0.018113847703002
2.195,-0.0182255327866936
2.2,-0.0183384979491876
2.205,-0.0184527612323636
2.21,-0.018568341034766
2.215,-0.0186852561211508
2.22,-0.0188035256323325
2.225,-0.0189231690953508
2.23,-0.0190442064339704
2.235,-0.0191666579795425
2.24,-0.0192905444822056
2.245,-0.0194158871224661
2.25,-0.0195427075231934
2.255,-0.0196710277619573
2.26,-0.0198008703838579
2.265,-0.0199322584147321
2.27,-0.0200652153748425
2.275,-0.0201997652930269
2.28,-0.0203359327213408
2.285,-0.0204737427501979
2.29,-0.0206132210240483
2.295,-0.0207543937576103
2.3,-0.020897287752652
2.305,-0.0210419304153984
2.31,-0.0211883497745289
2.315,-0.0213365744998428
2.32,-0.0214866339215723
2.325,-0.0216385580504136
2.33,-0.0217923775982821
2.335,-0.0219481239998132
2.34,-0.0221058294346672
2.345,-0.0222655268506503
2.35,-0.0224272499876909
2.355,-0.0225910334027256
2.36,-0.0227569124954998
2.365,-0.0229249235353464
2.37,-0.0230951036889881
2.375,-0.0232674910493982
2.38,-0.0234421246657513
2.385,-0.023619044574551
2.39,-0.0237982918319472
2.395,-0.0239799085473207
2.4,-0.0241639379181864
2.405,-0.0243504242664542
2.41,-0.0245394130761469
2.415,-0.0247309510326172
2.42,-0.0249250860633184
2.425,-0.025121867380248
2.43,-0.0253213455240755
2.435,-0.0255235724100984
2.44,-0.0257286013760731
2.445,-0.0259364872320083
2.45,-0.0261472863120293
2.455,-0.0263610565284126
2.46,-0.0265778574278806
2.465,-0.0267977502502615
2.47,-0.0270207979896675
2.475,-0.0272470654582594
2.48,-0.0274766193527553
2.485,-0.0277095283238273
2.49,-0.0279458630485025
2.495,-0.0281856963057377
2.5,-0.0284291030553214
2.505,-0.0286761605202549
2.51,-0.0289269482728378
2.515,-0.029181548324576
2.52,-0.0294400452201734
2.525,-0.029702526135778
2.53,-0.0299690809817258
2.535,-0.0302398025099979
2.54,-0.0305147864266762
2.545,-0.0307941315095967
2.55,-0.0310779397315559
2.555,-0.0313663163893241
2.56,-0.0316593702387746
2.565,-0.0319572136364787
2.57,-0.0322599626881284
2.575,-0.0325677374041384
2.58,-0.0328806618628568
2.585,-0.0331988643817589
2.59,-0.0335224776971555
2.595,-0.0338516391528063
2.6,-0.0341864908980197
2.605,-0.0345271800957476
2.61,-0.0348738591412521
2.615,-0.0352266858919857
2.62,-0.0355858239093117
2.625,-0.0359514427128003
2.63,-0.0363237180478058
2.635,-0.0367028321671652
2.64,-0.0370889741278474
2.645,-0.0374823401034547
2.65,-0.0378831337135803
2.655,-0.0382915663710279
2.66,-0.0387078576480421
2.665,-0.0391322356626827
2.67,-0.0395649374867071
2.675,-0.0400062095762391
2.68,-0.0404563082267322
2.685,-0.0409155000538089
2.69,-0.0413840625016223
2.695,-0.0418622843805934
2.7,-0.0423504664364361
2.705,-0.0428489219525837
2.71,-0.0433579773882299
2.715,-0.0438779730544628
2.72,-0.0444092638310219
2.725,-0.0449522199265538
2.73,-0.0455072276853425
2.735,-0.0460746904437836
2.74,-0.0466550294401811
2.745,-0.0472486847815585
2.75,-0.0478561164717222
2.755,-0.0484778055049156
2.76,-0.0491142550299556
2.765,-0.0497659915899957
2.77,-0.050433566443614
2.775,-0.0511175569733072
2.78,-0.0518185681880758
2.785,-0.0525372343272699
2.79,-0.0532742205735622
2.795,-0.0540302248835891
2.8,-0.0548059799455047
2.805,-0.0556022552735851
2.81,-0.056419859450909
2.815,-0.0572596425321224
2.82,-0.0581224986194221
2.825,-0.0590093686261318
2.83,-0.0599212432435338
2.835,-0.0608591661281725
2.84,-0.0618242373284396
2.845,-0.062817616971098
2.85,-0.063840529230426
2.855,-0.0648942666048849
2.86,-0.0659801945286849
2.865,-0.0670997563484625
2.87,-0.0682544786982678
2.875,-0.0694459773095531
2.88,-0.0706759632966507
2.885,-0.0719462499625144
2.89,-0.073258760174289
2.895,-0.0746155343635606
2.9,-0.0760187392122292
2.905,-0.0774706770916058
2.91,-0.0789737963299144
2.915,-0.0805307023919134
2.92,-0.0821441700638933
2.925,-0.0838171567481931
2.93,-0.0855528169835653
2.935,-0.0873545183215386
2.94,-0.0892258587046637
2.945,-0.0911706855103118
2.95,-0.0931931164439093
2.955,-0.0952975624885485
2.96,-0.0974887531442362
2.965,-0.0997717642199981
2.97,-0.102152048476484
2.975,-0.104635469456089
2.98,-0.107228338882815
2.985,-0.109937458066226
2.99,-0.112770163803784
2.995,-0.115734379345236
3,-0.118838671062891
