"Freq [GHz]","dB(S(ground_T1,ground_T1)) []"
2,-0.0369438996954106
2.005,-0.0376288058084038
2.01,-0.0383299464015412
2.015,-0.0390478281708528
2.02,-0.0397829769105871
2.025,-0.0405359384261238
2.03,-0.0413072794972277
2.035,-0.0420975888947915
2.04,-0.042907478454504
2.045,-0.0437375842110747
2.05,-0.0445885675969904
2.055,-0.0454611167099402
2.06,-0.0463559476535126
2.065,-0.0472738059559574
2.07,-0.0482154680722501
2.075,-0.0491817429751078
2.08,-0.050173473840949
2.085,-0.0511915398373339
2.09,-0.0522368580188843
2.095,-0.0533103853392242
2.1,-0.0544131207871329
2.105,-0.0555461076556504
2.11,-0.0567104359536761
2.115,-0.0579072449703002
2.12,-0.0591377260029846
2.125,-0.0604031252616008
2.13,-0.061704746961321
2.135,-0.063043956618461
2.14,-0.064422184564576
2.145,-0.0658409296953427
2.15,-0.0673017634722776
2.155,-0.0688063341968287
2.16,-0.0703563715781118
2.165,-0.0719536916174755
2.17,-0.0736002018350475
2.175,-0.0752979068657933
2.18,-0.0770489144550529
2.185,-0.0788554418862405
2.19,-0.0807198228765106
2.195,-0.0826445149794389
2.2,-0.0846321075375511
2.205,-0.0866853302314863
2.21,-0.0888070622772645
2.215,-0.091000342327962
2.22,-0.0932683791417609
2.225,-0.0956145630844241
2.23,-0.0980424785411031
2.235,-0.100555917319986
2.24,-0.103158893138795
2.245,-0.105855657294426
2.25,-0.108650715626801
2.255,-0.11154884689946
2.26,-0.114555122732812
2.265,-0.117674929240538
2.27,-0.120913990536168
2.275,-0.124278394295386
2.28,-0.12777461958045
2.285,-0.131409567156384
2.29,-0.135190592555217
2.295,-0.139125542174048
2.3,-0.143222792726493
2.305,-0.147491294405037
2.31,-0.151940618154927
2.315,-0.156581007509033
2.32,-0.161423435488733
2.325,-0.166479667138992
2.33,-0.171762328337827
2.335,-0.177284981602471
2.34,-0.183062209708637
2.345,-0.189109708046664
2.35,-0.195444386761896
2.355,-0.202084483868247
2.36,-0.209049690687227
2.365,-0.216361291152679
2.37,-0.224042316738834
2.375,-0.232117719020789
2.38,-0.240614562167884
2.385,-0.249562238009347
2.39,-0.258992706705441
2.395,-0.268940766517331
2.4,-0.279444356705882
2.405,-0.29054489821892
2.41,-0.302287677564694
2.415,-0.314722280137861
2.42,-0.327903080287933
2.425,-0.341889796629501
2.43,-0.356748122525874
2.435,-0.372550443377437
2.44,-0.38937665436869
2.445,-0.407315094739845
2.45,-0.426463617532874
2.455,-0.446930817218287
2.46,-0.468837441762356
2.465,-0.492318020697919
2.47,-0.517522746805206
2.475,-0.544619656327088
2.48,-0.573797161528533
2.485,-0.605267000226684
2.49,-0.639267680121007
2.495,-0.676068511911916
2.5,-0.715974345026074
2.505,-0.759331144166192
2.51,-0.806532575007122
2.515,-0.858027804601682
2.52,-0.914330768257755
2.525,-0.976031212114817
2.53,-1.04380789233661
2.535,-1.11844440153387
2.54,-1.20084820562424
2.545,-1.29207361617753
2.55,-1.39334960272809
2.555,-1.50611357766537
2.56,-1.63205257817935
2.565,-1.77315364615428
2.57,-1.93176569746313
2.575,-2.11067582015852
2.58,-2.31320381215163
2.585,-2.54331996545954
2.59,-2.80579279021073
2.595,-3.10637581651026
2.6,-3.45204626255089
2.605,-3.85131395355269
2.61,-4.31462762236092
2.615,-4.85491946804744
2.62,-5.48835001153346
2.625,-6.23534532072587
2.63,-7.12205014010888
2.635,-8.182302106991
2.64,-9.45991732729603
2.645,-11.0093388678956
2.65,-12.8843089106279
2.655,-15.0657974307115
2.66,-17.1528989339282
2.665,-17.8596426905961
2.67,-16.4722869745129
2.675,-14.2814574403173
2.68,-12.2294163772051
2.685,-10.5083842517129
2.69,-9.09201991374968
2.695,-7.9228548348386
2.7,-6.95014999140709
2.705,-6.13419550802988
2.71,-5.44451315097576
2.715,-4.85757477466215
2.72,-4.35499827898771
2.725,-3.92224265787784
2.73,-3.5476766111969
2.735,-3.22190701750985
2.74,-2.93728626567951
2.745,-2.68754410424022
2.75,-2.46750787160018
2.755,-2.27288679610733
2.76,-2.10010367721012
2.765,-1.94616222439074
2.77,-1.80854162986447
2.775,-1.68511219606183
2.78,-1.5740674045306
2.785,-1.47386893038927
2.79,-1.38320192080021
2.795,-1.3009384599618
2.8,-1.22610759781137
2.805,-1.15787066607292
2.81,-1.0955008718658
2.815,-1.03836636589539
2.82,-0.985916143768715
2.825,-0.937668265859273
2.83,-0.893199981317378
2.835,-0.852139421260311
2.84,-0.814158589429027
2.845,-0.778967429153895
2.85,-0.746308786023532
2.855,-0.715954118289507
2.86,-0.687699833395773
2.865,-0.661364150373187
2.87,-0.636784405190342
2.875,-0.613814730295448
2.88,-0.592324051147424
2.885,-0.572194352016391
2.89,-0.553319171131845
2.895,-0.535602291687999
2.9,-0.518956600534878
2.905,-0.503303090795109
2.91,-0.488569988314707
2.915,-0.474691984915144
2.92,-0.461609563970902
2.925,-0.449268405980191
2.93,-0.437618863597296
2.935,-0.426615497111984
2.94,-0.416216662642361
2.945,-0.406384146391621
2.95,-0.39708283923884
2.955,-0.388280446716076
2.96,-0.379947230090344
2.965,-0.372055774838292
2.97,-0.364580783288455
2.975,-0.357498888623801
2.98,-0.35078848779632
2.985,-0.344429591214616
2.99,-0.338403687332246
2.995,-0.332693620495195
3,-0.327283480606653
