"Freq [GHz]","dB(S(ground_T1,ground_T1)) []"
2,-0.0292667663030754
2.005,-0.0295739514339446
2.01,-0.0298828184583056
2.015,-0.0301934135831123
2.02,-0.0305057830343418
2.025,-0.0308199730643988
2.03,-0.0311360299595441
2.035,-0.0314540000474002
2.04,-0.031773929704492
2.045,-0.0320958653638568
2.05,-0.0324198535227188
2.055,-0.0327459407502158
2.06,-0.0330741736952046
2.065,-0.0334045990941402
2.07,-0.0337372637790149
2.075,-0.0340722146853985
2.08,-0.0344094988605358
2.085,-0.0347491634715637
2.09,-0.0350912558137711
2.095,-0.0354358233190045
2.1,-0.0357829135641293
2.105,-0.0361325742796115
2.11,-0.0364848533582025
2.115,-0.0368397988637301
2.12,-0.0371974590400078
2.125,-0.0375578823198449
2.13,-0.0379211173341955
2.135,-0.0382872129214362
2.14,-0.0386562181367528
2.145,-0.039028182261667
2.15,-0.0394031548137218
2.155,-0.0397811855562861
2.16,-0.0401623245085138
2.165,-0.0405466219554622
2.17,-0.0409341284583618
2.175,-0.0413248948650399
2.18,-0.0417189723205318
2.185,-0.0421164122778546
2.19,-0.0425172665089301
2.195,-0.0429215871157473
2.2,-0.0433294265416698
2.205,-0.0437408375829389
2.21,-0.0441558734003932
2.215,-0.0445745875313935
2.22,-0.044997033901935
2.225,-0.0454232668389918
2.23,-0.0458533410830955
2.235,-0.0462873118011218
2.24,-0.0467252345993129
2.245,-0.0471671655365719
2.25,-0.0476131611379569
2.255,-0.048063278408478
2.26,-0.0485175748471243
2.265,-0.0489761084611742
2.27,-0.0494389377807805
2.275,-0.0499061218738352
2.28,-0.0503777203611346
2.285,-0.0508537934318281
2.29,-0.0513344018591971
2.295,-0.0518196070167264
2.3,-0.0523094708945127
2.305,-0.052804056116005
2.31,-0.0533034259550808
2.315,-0.0538076443534707
2.32,-0.0543167759385557
2.325,-0.0548308860415063
2.33,-0.0553500407158405
2.335,-0.0558743067563143
2.34,-0.0564037517182718
2.345,-0.0569384439373439
2.35,-0.0574784525496176
2.355,-0.0580238475121888
2.36,-0.0585746996241955
2.365,-0.0591310805482654
2.37,-0.0596930628324647
2.375,-0.0602607199326843
2.38,-0.0608341262355372
2.385,-0.0614133570817516
2.39,-0.0619984887900638
2.395,-0.0625895986816528
2.4,-0.0631867651051035
2.405,-0.0637900674619224
2.41,-0.0643995862326206
2.415,-0.0650154030033779
2.42,-0.0656376004932983
2.425,-0.0662662625822856
2.43,-0.0669014743395276
2.435,-0.0675433220526441
2.44,-0.0681918932574639
2.445,-0.0688472767685007
2.45,-0.0695095627101097
2.455,-0.0701788425483562
2.46,-0.0708552091236056
2.465,-0.0715387566838577
2.47,-0.072229580918844
2.475,-0.0729277789949252
2.48,-0.0736334495907677
2.485,-0.0743466929338383
2.49,-0.0750676108377827
2.495,-0.0757963067406186
2.5,-0.0765328857438373
2.505,-0.0772774546524273
2.51,-0.0780301220157957
2.515,-0.0787909981696877
2.52,-0.0795601952790265
2.525,-0.0803378273818133
2.53,-0.0811240104340257
2.535,-0.0819188623555704
2.54,-0.0827225030773258
2.545,-0.0835350545892735
2.55,-0.0843566409898029
2.555,-0.085187388536125
2.56,-0.0860274256959198
2.565,-0.0868768832002086
2.57,-0.0877358940974344
2.575,-0.0886045938088715
2.58,-0.0894831201853352
2.585,-0.0903716135652357
2.59,-0.0912702168340245
2.595,-0.0921790754850409
2.6,-0.093098337681825
2.605,-0.0940281543219269
2.61,-0.0949686791022079
2.615,-0.0959200685857437
2.62,-0.0968824822702974
2.625,-0.0978560826584617
2.63,-0.0988410353294487
2.635,-0.0998375090126443
2.64,-0.100845675662894
2.645,-0.101865710537622
2.65,-0.102897792275772
2.655,-0.103942102978699
2.66,-0.104998828292954
2.665,-0.106068157495105
2.67,-0.107150283578564
2.675,-0.108245403342536
2.68,-0.109353717483101
2.685,-0.110475430686488
2.69,-0.111610751724591
2.695,-0.112759893552819
2.7,-0.113923073410267
2.705,-0.115100512922321
2.71,-0.116292438205756
2.715,-0.117499079976319
2.72,-0.118720673658953
2.725,-0.119957459500655
2.73,-0.121209682686053
2.735,-0.122477593455769
2.74,-0.123761447227628
2.745,-0.125061504720795
2.75,-0.126378032082874
2.755,-0.127711301020079
2.76,-0.12906158893052
2.765,-0.130429179040693
2.77,-0.131814360545223
2.775,-0.13321742874998
2.78,-0.134638685218583
2.785,-0.136078437922426
2.79,-0.137537001394285
2.795,-0.139014696885537
2.8,-0.140511852527186
2.805,-0.142028803494639
2.81,-0.143565892176452
2.815,-0.145123468347001
2.82,-0.146701889343282
2.825,-0.148301520245825
2.83,-0.149922734063896
2.835,-0.151565911925015
2.84,-0.153231443268902
2.845,-0.154919726045962
2.85,-0.156631166920342
2.855,-0.158366181477731
2.86,-0.160125194437938
2.865,-0.161908639872341
2.87,-0.163716961426355
2.875,-0.165550612546948
2.88,-0.167410056715332
2.885,-0.169295767684937
2.89,-0.17120822972471
2.895,-0.17314793786791
2.9,-0.175115398166418
2.905,-0.177111127950698
2.91,-0.179135656095477
2.915,-0.181189523291273
2.92,-0.183273282321811
2.925,-0.185387498347453
2.93,-0.187532749194691
2.935,-0.189709625651844
2.94,-0.19191873177098
2.945,-0.194160685176171
2.95,-0.196436117378163
2.955,-0.198745674095514
2.96,-0.20109001558226
2.965,-0.20346981696223
2.97,-0.205885768569987
2.975,-0.208338576298482
2.98,-0.210828961953511
2.985,-0.213357663614937
2.99,-0.215925436004757
2.995,-0.218533050862034
3,-0.221181297324689
