"Freq [GHz]","dB(S(ground_T1,ground_T1)) []"
2,-0.0199627423491717
2.005,-0.0200898118938278
2.01,-0.0202192243332509
2.015,-0.0203509525696931
2.02,-0.0204849699535896
2.025,-0.020621250281806
2.03,-0.0207597677959601
2.035,-0.020900497180872
2.04,-0.0210434135630816
2.045,-0.0211884925094722
2.05,-0.0213357100259796
2.055,-0.0214850425564068
2.06,-0.0216364669813076
2.065,-0.0217899606169863
2.07,-0.0219455012145605
2.075,-0.0221030669591427
2.08,-0.0222626364690803
2.085,-0.0224241887953105
2.09,-0.0225877034207859
2.095,-0.0227531602599885
2.1,-0.0229205396585387
2.105,-0.0230898223928884
2.11,-0.0232609896700888
2.115,-0.0234340231276591
2.12,-0.0236089048335316
2.125,-0.0237856172860793
2.13,-0.0239641434142287
2.135,-0.024144466577677
2.14,-0.0243265705671462
2.145,-0.0245104396047765
2.15,-0.0246960583445511
2.155,-0.0248834118728471
2.16,-0.0250724857090388
2.165,-0.0252632658062022
2.17,-0.0254557385518862
2.175,-0.0256498907689768
2.18,-0.0258457097166393
2.185,-0.0260431830913481
2.19,-0.0262422990279871
2.195,-0.0264430461010413
2.2,-0.0266454133258616
2.205,-0.0268493901600251
2.21,-0.02705496650476
2.215,-0.0272621327064608
2.22,-0.0274708795582909
2.225,-0.0276811983018571
2.23,-0.0278930806289595
2.235,-0.0281065186834542
2.24,-0.0283215050631473
2.245,-0.0285380328218322
2.25,-0.0287560954713452
2.255,-0.0289756869837637
2.26,-0.0291968017936373
2.265,-0.0294194348003302
2.27,-0.0296435813704389
2.275,-0.0298692373402923
2.28,-0.0300963990185339
2.285,-0.0303250631887893
2.29,-0.030555227112418
2.295,-0.0307868885313536
2.3,-0.0310200456710087
2.305,-0.0312546972432999
2.31,-0.0314908424497195
2.315,-0.0317284809845215
2.32,-0.0319676130379744
2.325,-0.0322082392997116
2.33,-0.0324503609621788
2.335,-0.032693979724125
2.34,-0.0329390977942376
2.345,-0.0331857178948249
2.35,-0.0334338432656131
2.355,-0.0336834776676017
2.36,-0.0339346253870437
2.365,-0.0341872912394924
2.37,-0.0344414805739394
2.375,-0.0346971992770678
2.38,-0.0349544537775516
2.385,-0.0352132510505039
2.39,-0.0354735986219621
2.395,-0.0357355045735168
2.4,-0.0359989775469942
2.405,-0.0362640267492547
2.41,-0.0365306619570933
2.415,-0.0367988935222113
2.42,-0.0370687323763053
2.425,-0.0373401900362522
2.43,-0.0376132786093816
2.435,-0.0378880107988585
2.44,-0.0381643999091596
2.445,-0.0384424598516553
2.45,-0.0387222051502823
2.455,-0.0390036509473414
2.46,-0.0392868130093598
2.465,-0.0395717077331148
2.47,-0.0398583521516994
2.475,-0.0401467639407334
2.48,-0.040436961424679
2.485,-0.0407289635832481
2.49,-0.0410227900579242
2.495,-0.0413184611586064
2.5,-0.0416159978703453
2.505,-0.0419154218602035
2.51,-0.0422167554842197
2.515,-0.0425200217945015
2.52,-0.0428252445464094
2.525,-0.0431324482058761
2.53,-0.043441657956839
2.535,-0.0437528997087815
2.54,-0.0440662001044061
2.545,-0.0443815865274174
2.55,-0.0446990871104284
2.555,-0.0450187307429962
2.56,-0.045340547079778
2.565,-0.0456645665487993
2.57,-0.0459908203598783
2.575,-0.0463193405131367
2.58,-0.0466501598076741
2.585,-0.0469833118503666
2.59,-0.0473188310647699
2.595,-0.0476567527001929
2.6,-0.0479971128408766
2.605,-0.0483399484153179
2.61,-0.0486852972057377
2.615,-0.0490331978576693
2.62,-0.0493836898897092
2.625,-0.0497368137033859
2.63,-0.0500926105931783
2.635,-0.0504511227566928
2.64,-0.0508123933049617
2.645,-0.0511764662728988
2.65,-0.0515433866299189
2.655,-0.0519132002906685
2.66,-0.0522859541259464
2.665,-0.052661695973758
2.67,-0.0530404746505257
2.675,-0.053422339962455
2.68,-0.0538073427170604
2.685,-0.0541955347348543
2.69,-0.0545869688611821
2.695,-0.0549816989782325
2.7,-0.0553797800172223
2.705,-0.0557812679707017
2.71,-0.0561862199050968
2.715,-0.0565946939733551
2.72,-0.057006749427794
2.725,-0.0574224466331287
2.73,-0.057841847079654
2.735,-0.0582650133966162
2.74,-0.0586920093657518
2.745,-0.0591228999350189
2.75,-0.0595577512325022
2.755,-0.0599966305805038
2.76,-0.0604396065098184
2.765,-0.0608867487741924
2.77,-0.0613381283649861
2.775,-0.0617938175260043
2.78,-0.0622538897685415
2.785,-0.062718419886606
2.79,-0.0631874839723568
2.795,-0.0636611594317231
2.8,-0.0641395250002347
2.805,-0.0646226607590423
2.81,-0.0651106481511809
2.815,-0.0656035699979727
2.82,-0.0661015105157136
2.825,-0.0666045553325165
2.83,-0.0671127915053805
2.835,-0.0676263075375069
2.84,-0.0681451933957749
2.845,-0.0686695405284901
2.85,-0.0691994418833277
2.855,-0.0697349919254873
2.86,-0.0702762866561212
2.865,-0.0708234236309262
2.87,-0.0713765019790245
2.875,-0.0719356224220236
2.88,-0.0725008872933621
2.885,-0.0730724005578486
2.89,-0.0736502678314607
2.895,-0.0742345964013914
2.9,-0.0748254952463002
2.905,-0.0754230750568703
2.91,-0.0760274482565503
2.915,-0.07663872902259
2.92,-0.0772570333073047
2.925,-0.0778824788595953
2.93,-0.0785151852467413
2.935,-0.0791552738764174
2.94,-0.0798028680190155
2.945,-0.0804580928301863
2.95,-0.0811210753736712
2.955,-0.0817919446443882
2.96,-0.0824708315918042
2.965,-0.0831578691435446
2.97,-0.0838531922293125
2.975,-0.0845569378050668
2.98,-0.0852692448774638
2.985,-0.085990254528607
2.99,-0.086720109941047
2.995,-0.0874589564231011
3,-0.0882069414344239
