"Freq [GHz]","dB(S(ground_T1,ground_T1)) []"
2,-0.0144830051853646
2.005,-0.0145289833943223
2.01,-0.0145753491180163
2.015,-0.0146221048194654
2.02,-0.0146692529767517
2.025,-0.0147167960830857
2.03,-0.0147647366468965
2.035,-0.0148130771918878
2.04,-0.0148618202571388
2.045,-0.0149109683971591
2.05,-0.0149605241819779
2.055,-0.0150104901972174
2.06,-0.0150608690441648
2.065,-0.0151116633398716
2.07,-0.015162875717203
2.075,-0.0152145088249403
2.08,-0.0152665653278538
2.085,-0.0153190479067817
2.09,-0.0153719592587117
2.095,-0.0154253020968637
2.1,-0.015479079150777
2.105,-0.01553329316638
2.11,-0.0155879469060829
2.115,-0.0156430431488637
2.12,-0.0156985846903473
2.125,-0.0157545743428848
2.13,-0.015811014935656
2.135,-0.0158679093147418
2.14,-0.0159252603432066
2.145,-0.0159830709011977
2.15,-0.0160413438860325
2.155,-0.0161000822122703
2.16,-0.0161592888118206
2.165,-0.0162189666340243
2.17,-0.0162791186457363
2.175,-0.0163397478314245
2.18,-0.0164008571932671
2.185,-0.0164624497512269
2.19,-0.0165245285431559
2.195,-0.0165870966248815
2.2,-0.0166501570703027
2.205,-0.0167137129714872
2.21,-0.0167777674387579
2.215,-0.0168423236007936
2.22,-0.0169073846047246
2.225,-0.0169729536162249
2.23,-0.0170390338196095
2.235,-0.0171056284179374
2.24,-0.0171727406331047
2.245,-0.017240373705936
2.25,-0.0173085308963088
2.255,-0.0173772154832159
2.26,-0.0174464307648981
2.265,-0.0175161800589284
2.27,-0.0175864667023189
2.275,-0.0176572940516225
2.28,-0.0177286654830313
2.285,-0.0178005843924876
2.29,-0.0178730541957846
2.295,-0.0179460783286689
2.3,-0.0180196602469507
2.305,-0.0180938034265985
2.31,-0.0181685113638654
2.315,-0.0182437875753748
2.32,-0.0183196355982485
2.325,-0.018396058990194
2.33,-0.0184730613296352
2.335,-0.0185506462158073
2.34,-0.0186288172688699
2.345,-0.0187075781300256
2.35,-0.0187869324616237
2.355,-0.018866883947276
2.36,-0.0189474362919728
2.365,-0.0190285932221889
2.37,-0.0191103584860079
2.375,-0.019192735853228
2.38,-0.0192757291154899
2.385,-0.0193593420863786
2.39,-0.019443578601552
2.395,-0.019528442518858
2.4,-0.0196139377184472
2.405,-0.0197000681028968
2.41,-0.0197868375973297
2.415,-0.0198742501495379
2.42,-0.0199623097301003
2.425,-0.0200510203325049
2.43,-0.0201403859732755
2.435,-0.020230410692094
2.44,-0.020321098551926
2.445,-0.0204124536391419
2.45,-0.020504480063645
2.455,-0.0205971819590003
2.46,-0.0206905634825642
2.465,-0.0207846288156044
2.47,-0.0208793821634344
2.475,-0.0209748277555425
2.48,-0.0210709698457265
2.485,-0.0211678127122145
2.49,-0.0212653606578101
2.495,-0.0213636180100119
2.5,-0.0214625891211579
2.505,-0.021562278368558
2.51,-0.0216626901546206
2.515,-0.0217638289070022
2.52,-0.0218656990787278
2.525,-0.021968305148346
2.53,-0.0220716516200558
2.535,-0.0221757430238517
2.54,-0.022280583915655
2.545,-0.0223861788774676
2.55,-0.0224925325175015
2.555,-0.0225996494703309
2.56,-0.0227075343970265
2.565,-0.0228161919853085
2.57,-0.0229256269496837
2.575,-0.0230358440315953
2.58,-0.0231468479995722
2.585,-0.023258643649371
2.59,-0.0233712358041304
2.595,-0.0234846293145077
2.6,-0.0235988290588484
2.605,-0.023713839943321
2.61,-0.0238296669020736
2.615,-0.023946314897392
2.62,-0.0240637889198452
2.625,-0.0241820939884462
2.63,-0.0243012351507998
2.635,-0.0244212174832703
2.64,-0.0245420460911247
2.645,-0.0246637261087051
2.65,-0.0247862626995706
2.655,-0.0249096610566812
2.66,-0.0250339264025338
2.665,-0.0251590639893355
2.67,-0.0252850790991689
2.675,-0.0254119770441484
2.68,-0.0255397631665889
2.685,-0.0256684428391766
2.69,-0.0257980214651212
2.695,-0.025928504478338
2.7,-0.0260598973436011
2.705,-0.0261922055567289
2.71,-0.0263254346447434
2.715,-0.0264595901660496
2.72,-0.0265946777105927
2.725,-0.0267307029000502
2.73,-0.0268676713879902
2.735,-0.0270055888600583
2.74,-0.0271444610341505
2.745,-0.0272842936605779
2.75,-0.0274250925222688
2.755,-0.0275668634349239
2.76,-0.0277096122472104
2.765,-0.0278533448409461
2.77,-0.0279980671312633
2.775,-0.0281437850668132
2.78,-0.0282905046299356
2.785,-0.0284382318368567
2.79,-0.0285869727378569
2.795,-0.0287367334174788
2.8,-0.028887519994702
2.805,-0.0290393386231415
2.81,-0.0291921954912277
2.815,-0.0293460968224089
2.82,-0.0295010488753373
2.825,-0.0296570579440642
2.83,-0.0298141303582376
2.835,-0.0299722724832938
2.84,-0.0301314907206567
2.845,-0.0302917915079414
2.85,-0.0304531813191422
2.855,-0.0306156666648445
2.86,-0.0307792540924118
2.865,-0.0309439501862097
2.87,-0.0311097615677912
2.875,-0.0312766948961085
2.88,-0.0314447568677195
2.885,-0.0316139542169944
2.89,-0.0317842937163229
2.895,-0.0319557821763306
2.9,-0.0321284264460777
2.905,-0.032302233413282
2.91,-0.0324772100045222
2.915,-0.0326533631854661
2.92,-0.0328306999610696
2.925,-0.0330092273758054
2.93,-0.0331889525138772
2.935,-0.0333698824994434
2.94,-0.03355202449682
2.945,-0.0337353857107237
2.95,-0.0339199733864881
2.955,-0.0341057948102825
2.96,-0.0342928573093386
2.965,-0.0344811682521799
2.97,-0.034670735048849
2.975,-0.0348615651511393
2.98,-0.0350536660528165
2.985,-0.0352470452898598
2.99,-0.0354417104406907
2.995,-0.0356376691264021
3,-0.0358349290110068
