"Freq [GHz]","dB(S(ground_T1,ground_T1)) []"
2,-0.0141616606348289
2.005,-0.0142022586089731
2.01,-0.0142431787623582
2.015,-0.014284423758382
2.02,-0.0143259962698851
2.025,-0.0143678989791886
2.03,-0.0144101345781438
2.035,-0.0144527057681732
2.04,-0.0144956152603206
2.045,-0.0145388657752875
2.05,-0.0145824600434933
2.055,-0.0146264008050995
2.06,-0.0146706908100773
2.065,-0.014715332818243
2.07,-0.0147603295992978
2.075,-0.014805683932897
2.08,-0.0148513986086714
2.085,-0.0148974764262899
2.09,-0.014943920195506
2.095,-0.0149907327361955
2.1,-0.0150379168784198
2.105,-0.0150854754624643
2.11,-0.0151334113388844
2.115,-0.0151817273685695
2.12,-0.0152304264227707
2.125,-0.0152795113831681
2.13,-0.0153289851419121
2.135,-0.0153788506016712
2.14,-0.0154291106756904
2.145,-0.0154797682878349
2.15,-0.0155308263726404
2.155,-0.0155822878753684
2.16,-0.0156341557520528
2.165,-0.0156864329695572
2.17,-0.0157391225056139
2.175,-0.0157922273488932
2.18,-0.0158457504990432
2.185,-0.0158996949667405
2.19,-0.0159540637737532
2.195,-0.0160088599529809
2.2,-0.0160640865485225
2.205,-0.0161197466157131
2.21,-0.0161758432211861
2.215,-0.0162323794429327
2.22,-0.0162893583703401
2.225,-0.0163467831042575
2.23,-0.016404656757048
2.235,-0.0164629824526394
2.24,-0.0165217633265834
2.245,-0.0165810025261068
2.25,-0.0166407032101717
2.255,-0.0167008685495197
2.26,-0.0167615017267422
2.265,-0.0168226059363301
2.27,-0.0168841843847184
2.275,-0.0169462402903645
2.28,-0.0170087768837817
2.285,-0.0170717974076183
2.29,-0.0171353051166947
2.295,-0.0171993032780717
2.3,-0.0172637951711017
2.305,-0.0173287840874909
2.31,-0.0173942733313588
2.315,-0.017460266219289
2.32,-0.0175267660803872
2.325,-0.0175937762563528
2.33,-0.0176613001015202
2.335,-0.0177293409829258
2.34,-0.0177979022803679
2.345,-0.0178669873864638
2.35,-0.0179365997067106
2.355,-0.0180067426595419
2.36,-0.0180774196763961
2.365,-0.0181486342017572
2.37,-0.0182203896932454
2.375,-0.0182926896216371
2.38,-0.0183655374709718
2.385,-0.0184389367385784
2.39,-0.0185128909351424
2.395,-0.0185874035847851
2.4,-0.0186624782251002
2.405,-0.0187381184072402
2.41,-0.0188143276959524
2.415,-0.0188911096696655
2.42,-0.0189684679205355
2.425,-0.0190464060545172
2.43,-0.0191249276914202
2.435,-0.0192040364649795
2.44,-0.0192837360229123
2.445,-0.0193640300269823
2.45,-0.0194449221530708
2.455,-0.0195264160912328
2.46,-0.0196085155457568
2.465,-0.0196912242352456
2.47,-0.0197745458926648
2.475,-0.0198584842654166
2.48,-0.0199430431153984
2.485,-0.0200282262190778
2.49,-0.020114037367544
2.495,-0.020200480366586
2.5,-0.0202875590367556
2.505,-0.0203752772134275
2.51,-0.0204636387468719
2.515,-0.0205526475023244
2.52,-0.0206423073600325
2.525,-0.0207326222153572
2.53,-0.020823595978806
2.535,-0.0209152325761221
2.54,-0.0210075359483405
2.545,-0.0211005100518656
2.55,-0.0211941588585319
2.555,-0.0212884863556773
2.56,-0.0213834965462044
2.565,-0.0214791934486568
2.57,-0.0215755810972849
2.575,-0.0216726635421187
2.58,-0.0217704448490308
2.585,-0.0218689290998113
2.59,-0.0219681203922365
2.595,-0.0220680228401419
2.6,-0.0221686405734853
2.605,-0.0222699777384199
2.61,-0.0223720384973759
2.615,-0.0224748270291183
2.62,-0.0225783475288251
2.625,-0.0226826042081508
2.63,-0.0227876012953084
2.635,-0.0228933430351449
2.64,-0.0229998336891934
2.645,-0.0231070775357711
2.65,-0.023215078870032
2.655,-0.0233238420040447
2.66,-0.0234333712668796
2.665,-0.0235436710046658
2.67,-0.0236547455806716
2.675,-0.023766599375373
2.68,-0.0238792367865414
2.685,-0.0239926622293042
2.69,-0.0241068801362275
2.695,-0.0242218949573841
2.7,-0.0243377111604419
2.705,-0.0244543332307222
2.71,-0.0245717656712874
2.715,-0.0246900130030167
2.72,-0.0248090797646727
2.725,-0.0249289705129976
2.73,-0.0250496898227614
2.735,-0.0251712422868688
2.74,-0.0252936325164086
2.745,-0.0254168651407589
2.75,-0.0255409448076451
2.755,-0.0256658761832219
2.76,-0.0257916639521569
2.765,-0.0259183128177076
2.77,-0.0260458275017967
2.775,-0.0261742127450899
2.78,-0.0263034733070867
2.785,-0.0264336139661864
2.79,-0.0265646395197754
2.795,-0.026696554784308
2.8,-0.0268293645953767
2.805,-0.0269630738078114
2.81,-0.0270976872957399
2.815,-0.0272332099526882
2.82,-0.0273696466916475
2.825,-0.0275070024451597
2.83,-0.0276452821654044
2.835,-0.0277844908242729
2.84,-0.0279246334134673
2.845,-0.0280657149445532
2.85,-0.0282077404490801
2.855,-0.0283507149786342
2.86,-0.0284946436049362
2.865,-0.0286395314199244
2.87,-0.0287853835358338
2.875,-0.0289322050852933
2.88,-0.0290800012213923
2.885,-0.0292287771177757
2.89,-0.0293785379687305
2.895,-0.029529288989272
2.9,-0.0296810354152218
2.905,-0.0298337825032976
2.91,-0.0299875355312086
2.915,-0.0301422997977299
2.92,-0.0302980806227934
2.925,-0.0304548833475769
2.93,-0.030612713334591
2.935,-0.0307715759677684
2.94,-0.0309314766525477
2.945,-0.0310924208159618
2.95,-0.0312544139067381
2.955,-0.0314174613953708
2.96,-0.0315815687742196
2.965,-0.0317467415576016
2.97,-0.0319129852818676
2.975,-0.0320803055055161
2.98,-0.0322487078092547
2.985,-0.032418197796119
2.99,-0.0325887810915375
2.995,-0.0327604633434449
3,-0.0329332502223641
