"Freq [GHz]","dB(S(ground_T1,ground_T1)) []"
2,-0.0183660416072925
2.005,-0.0185146492302801
2.01,-0.0186637394237364
2.015,-0.0188133541556829
2.02,-0.0189635350261003
2.025,-0.0191143232733854
2.03,-0.0192657597808194
2.035,-0.019417885083022
2.04,-0.0195707393724592
2.045,-0.0197243625059326
2.05,-0.0198787940111359
2.055,-0.0200340730932017
2.06,-0.020190238641295
2.065,-0.0203473292352513
2.07,-0.0205053831522358
2.075,-0.0206644383734549
2.08,-0.0208245325909134
2.085,-0.0209857032142192
2.09,-0.0211479873774426
2.095,-0.0213114219460419
2.1,-0.0214760435238318
2.105,-0.021641888460038
2.11,-0.0218089928564114
2.115,-0.0219773925744209
2.12,-0.0221471232425133
2.125,-0.0223182202634736
2.13,-0.0224907188218687
2.135,-0.0226646538915614
2.14,-0.0228400602433532
2.145,-0.0230169724527054
2.15,-0.0231954249075693
2.155,-0.023375451816336
2.16,-0.0235570872158853
2.165,-0.0237403649797706
2.17,-0.0239253188265216
2.175,-0.0241119823280749
2.18,-0.0243003889183429
2.185,-0.0244905719019196
2.19,-0.0246825644629486
2.195,-0.0248763996741089
2.2,-0.0250721105057997
2.205,-0.025269729835458
2.21,-0.0254692904570621
2.215,-0.0256708250907894
2.22,-0.0258743663928857
2.225,-0.0260799469657035
2.23,-0.0262875993679293
2.235,-0.0264973561250301
2.24,-0.0267092497398924
2.245,-0.0269233127036862
2.25,-0.0271395775069355
2.255,-0.0273580766508431
2.26,-0.0275788426588224
2.265,-0.0278019080883046
2.27,-0.0280273055427644
2.275,-0.0282550676840343
2.28,-0.0284852272448733
2.285,-0.0287178170418142
2.29,-0.0289528699882993
2.295,-0.0291904191080995
2.3,-0.0294304975490563
2.305,-0.0296731385971262
2.31,-0.0299183756907337
2.315,-0.0301662424354872
2.32,-0.0304167726191958
2.325,-0.0306700002272941
2.33,-0.0309259594585728
2.335,-0.0311846847413116
2.34,-0.0314462107498109
2.345,-0.0317105724212906
2.35,-0.0319778049732115
2.355,-0.0322479439210261
2.36,-0.0325210250963442
2.365,-0.0327970846655545
2.37,-0.0330761591489205
2.375,-0.033358285440111
2.38,-0.0336435008262576
2.385,-0.0339318430084835
2.39,-0.0342233501229728
2.395,-0.034518060762551
2.4,-0.0348160139988185
2.405,-0.0351172494048482
2.41,-0.0354218070784632
2.415,-0.0357297276661076
2.42,-0.0360410523873285
2.425,-0.0363558230598943
2.43,-0.0366740821255634
2.435,-0.0369958726765015
2.44,-0.0373212384824346
2.445,-0.0376502240184391
2.45,-0.0379828744935433
2.455,-0.0383192358800006
2.46,-0.0386593549433929
2.465,-0.039003279273497
2.47,-0.0393510573159771
2.475,-0.0397027384049341
2.48,-0.0400583727962873
2.485,-0.0404180117020816
2.49,-0.0407817073257011
2.495,-0.0411495128980096
2.5,-0.0415214827145071
2.505,-0.0418976721734308
2.51,-0.0422781378149424
2.515,-0.0426629373613334
2.52,-0.0430521297583482
2.525,-0.0434457752176245
2.53,-0.0438439352602805
2.535,-0.0442466727617226
2.54,-0.0446540519976511
2.545,-0.0450661386913373
2.55,-0.045483000062214
2.555,-0.0459047048758017
2.56,-0.0463313234949962
2.565,-0.0467629279328085
2.57,-0.0471995919065394
2.575,-0.0476413908934846
2.58,-0.0480884021881781
2.585,-0.0485407049612346
2.59,-0.0489983803198483
2.595,-0.0494615113699803
2.6,-0.0499301832803016
2.605,-0.0504044833479302
2.61,-0.0508845010660148
2.615,-0.0513703281932651
2.62,-0.0518620588254016
2.625,-0.0523597894686769
2.63,-0.0528636191154635
2.635,-0.0533736493220083
2.64,-0.053889984288399
2.645,-0.0544127309408336
2.65,-0.0549419990162329
2.655,-0.0554779011492958
2.66,-0.0560205529620577
2.665,-0.056570073156026
2.67,-0.0571265836069913
2.675,-0.0576902094625821
2.68,-0.0582610792426426
2.685,-0.0588393249425384
2.69,-0.0594250821394716
2.695,-0.0600184901018921
2.7,-0.0606196919021348
2.705,-0.0612288345323174
2.71,-0.0618460690236886
2.715,-0.062471550569465
2.72,-0.06310543865128
2.725,-0.0637478971694089
2.73,-0.0643990945768181
2.735,-0.0650592040171934
2.74,-0.065728403467106
2.745,-0.0664068758823693
2.75,-0.0670948093488015
2.755,-0.0677923972374911
2.76,-0.0684998383647065
2.765,-0.0692173371566234
2.77,-0.069945103819009
2.775,-0.0706833545120199
2.78,-0.0714323115303009
2.785,-0.0721922034885246
2.79,-0.0729632655125601
2.795,-0.0737457394364929
2.8,-0.0745398740055971
2.805,-0.0753459250855716
2.81,-0.0761641558781245
2.815,-0.0769948371432093
2.82,-0.0778382474280874
2.825,-0.0786946733034417
2.83,-0.0795644096067718
2.835,-0.0804477596933548
2.84,-0.0813450356949483
2.845,-0.0822565587865603
2.85,-0.083182659461505
2.855,-0.0841236778150702
2.86,-0.0850799638370232
2.865,-0.0860518777133071
2.87,-0.0870397901372058
2.875,-0.0880440826302986
2.88,-0.0890651478735443
2.885,-0.0901033900488253
2.89,-0.0911592251913057
2.895,-0.0922330815529964
2.9,-0.0933253999778432
2.905,-0.0944366342888232
2.91,-0.0955672516873693
2.915,-0.0967177331655933
2.92,-0.0978885739317354
2.925,-0.0990802838492973
2.93,-0.100293387890306
2.935,-0.101528426603225
2.94,-0.102785956596001
2.945,-0.104066551034775
2.95,-0.105370800158784
2.955,-0.10669931181204
2.96,-0.108052711992347
2.965,-0.109431645418265
2.97,-0.110836776114662
2.975,-0.112268788017463
2.98,-0.11372838559832
2.985,-0.115216294509853
2.99,-0.116733262252209
2.995,-0.118280058861681
3,-0.11985747762216
