"Freq [GHz]","dB(S(ground_T1,ground_T1)) []"
2,-0.0301568134620556
2.005,-0.0311558410221112
2.01,-0.0322281532521576
2.015,-0.0333811987290661
2.02,-0.0346233910271707
2.025,-0.0359642617301072
2.03,-0.0374146423753288
2.035,-0.0389868817339394
2.04,-0.0406951064629338
2.045,-0.0425555352773165
2.05,-0.0445868595323199
2.055,-0.0468107066957867
2.06,-0.0492522079233724
2.065,-0.0519406972372296
2.07,-0.0549105782316835
2.075,-0.0582024056101159
2.08,-0.061864244376095
2.085,-0.0659533908708682
2.09,-0.0705385695801562
2.095,-0.0757027614582448
2.1,-0.0815468790541173
2.105,-0.0881945895517723
2.11,-0.0957987122520903
2.115,-0.104549802977332
2.12,-0.114687817958382
2.125,-0.126518178835604
2.13,-0.140434229927329
2.135,-0.156949144739769
2.14,-0.176742072754366
2.145,-0.200726206820941
2.15,-0.230151393065199
2.155,-0.266762603339047
2.16,-0.313051394113557
2.165,-0.372667216268719
2.17,-0.451113629657995
2.175,-0.556973357672405
2.18,-0.704160931309904
2.185,-0.916277677269797
2.19,-1.23552481621519
2.195,-1.74216803098992
2.2,-2.60037876665187
2.205,-4.17759556551064
2.21,-7.42500033538825
2.215,-16.2651433166197
2.22,-16.1252419860987
2.225,-7.45490938635271
2.23,-4.25424082747447
2.235,-2.69015172142528
2.24,-1.83177573153685
2.245,-1.32023322420513
2.25,-0.994827710206875
2.255,-0.776617782046947
2.26,-0.623856221392705
2.265,-0.513052575338979
2.27,-0.430273508170185
2.275,-0.366873987573403
2.28,-0.317278977938183
2.285,-0.277771397094076
2.29,-0.24580012136707
2.295,-0.219569342672582
2.3,-0.197786436292981
2.305,-0.179502405203057
2.31,-0.164008155884512
2.315,-0.150765426218587
2.32,-0.139359782626864
2.325,-0.129468003880034
2.33,-0.120835043401218
2.335,-0.11325749241879
2.34,-0.106571533189665
2.345,-0.100644043656675
2.35,-0.0953659468752986
2.355,-0.090647181294023
2.36,-0.0864128562017305
2.365,-0.0826002839362644
2.37,-0.0791566677738502
2.375,-0.0760372851457328
2.38,-0.0732040485927604
2.385,-0.0706243573399798
2.39,-0.0682701743253981
2.395,-0.0661172794962168
2.4,-0.0641446619304097
2.405,-0.062334022052977
2.41,-0.0606693617340165
2.415,-0.0591366449718287
2.42,-0.0577235156012145
2.425,-0.0564190613283995
2.43,-0.0552136156000475
2.435,-0.0540985905259808
2.44,-0.0530663354123052
2.445,-0.0521100165120704
2.45,-0.0512235144306977
2.455,-0.0504013362825708
2.46,-0.0496385402219443
2.465,-0.0489306703935726
2.47,-0.0482737006893753
2.475,-0.0476639859732808
2.48,-0.0470982196609063
2.485,-0.0465733967241773
2.49,-0.0460867813413459
2.495,-0.0456358785367637
2.5,-0.0452184092571547
2.505,-0.0448322884159914
2.51,-0.0444756055082623
2.515,-0.0441466074569445
2.52,-0.0438436834019374
2.525,-0.0435653511836873
2.53,-0.0433102453088577
2.535,-0.0430771062149006
2.54,-0.0428647706755397
2.545,-0.0426721632104402
2.55,-0.0424982883805683
2.555,-0.0423422238662814
2.56,-0.0422031142383401
2.565,-0.0420801653437135
2.57,-0.0419726392375719
2.575,-0.0418798496015867
2.58,-0.0418011575958119
2.585,-0.0417359680978211
2.59,-0.0416837262883078
2.595,-0.0416439145471018
2.6,-0.0416160496276946
2.605,-0.0415996800820978
2.61,-0.0415943839109665
2.615,-0.0415997664167302
2.62,-0.0416154582399351
2.625,-0.0416411135611283
2.63,-0.0416764084525303
2.635,-0.0417210393654282
2.64,-0.0417747217406269
2.645,-0.0418371887307154
2.65,-0.0419081900239567
2.655,-0.0419874907606933
2.66,-0.0420748705340675
2.665,-0.0421701224676626
2.67,-0.042273052363376
2.675,-0.0423834779135249
2.68,-0.0425012279717263
2.685,-0.0426261418776034
2.69,-0.0427580688308942
2.695,-0.0428968673108453
2.7,-0.0430424045372717
2.705,-0.0431945559698959
2.71,-0.0433532048429308
2.715,-0.043518241732147
2.72,-0.0436895641518668
2.725,-0.0438670761796076
2.73,-0.0440506881062357
2.735,-0.0442403161097249
2.74,-0.0444358819507596
2.745,-0.0446373126885411
2.75,-0.0448445404153297
2.755,-0.0450575020083778
2.76,-0.0452761388979891
2.765,-0.0455003968505483
2.77,-0.0457302257655103
2.775,-0.0459655794853083
2.78,-0.0462064156173782
2.785,-0.0464526953673872
2.79,-0.0467043833829537
2.795,-0.046961447607168
2.8,-0.047223859141237
2.805,-0.0474915921156616
2.81,-0.0477646235694056
2.815,-0.0480429333365397
2.82,-0.0483265039398835
2.825,-0.0486153204912077
2.83,-0.0489093705975844
2.835,-0.0492086442735197
2.84,-0.049513133858526
2.845,-0.0498228339397646
2.85,-0.0501377412795161
2.855,-0.050457854747161
2.86,-0.0507831752554159
2.865,-0.0511137057005943
2.87,-0.0514494509066479
2.875,-0.0517904175728028
2.88,-0.0521366142245696
2.885,-0.0524880511679503
2.89,-0.0528447404467209
2.895,-0.0532066958025225
2.9,-0.0535739326377511
2.905,-0.0539464679809863
2.91,-0.0543243204549204
2.915,-0.0547075102466008
2.92,-0.0550960590799393
2.925,-0.0554899901903235
2.93,-0.0558893283012777
2.935,-0.0562940996030519
2.94,-0.0567043317330939
2.945,-0.0571200537582828
2.95,-0.057541296158863
2.955,-0.0579680908140541
2.96,-0.0584004709891935
2.965,-0.0588384713244408
2.97,-0.059282127824894
2.975,-0.0597314778521835
2.98,-0.0601865601173725
2.985,-0.0606474146752198
2.99,-0.0611140829197021
2.995,-0.0615866075807862
3,-0.0620650327224449
