"Freq [GHz]","dB(S(ground_T1,ground_T1)) []"
2,-0.0188932488734467
2.005,-0.0190269417459302
2.01,-0.0191622031057346
2.015,-0.0192990281718305
2.02,-0.0194374124511204
2.025,-0.0195773517394253
2.03,-0.0197188421224862
2.035,-0.01986187997708
2.04,-0.0200064619721979
2.045,-0.0201525850702791
2.05,-0.0203002465285522
2.055,-0.0204494439004314
2.06,-0.0206001750369992
2.065,-0.0207524380885711
2.07,-0.020906231506313
2.075,-0.0210615540439869
2.08,-0.021218404759729
2.085,-0.0213767830179365
2.09,-0.0215366884912377
2.095,-0.0216981211625391
2.1,-0.0218610813271577
2.105,-0.0220255695950487
2.11,-0.0221915868931284
2.115,-0.0223591344676618
2.12,-0.0225282138867841
2.125,-0.022698827043072
2.13,-0.0228709761562609
2.135,-0.0230446637760154
2.14,-0.0232198927848474
2.145,-0.0233966664010979
2.15,-0.0235749881820536
2.155,-0.0237548620271847
2.16,-0.0239362921814533
2.165,-0.0241192832387987
2.17,-0.0243038401456911
2.175,-0.0244899682048645
2.18,-0.0246776730791315
2.185,-0.0248669607953785
2.19,-0.0250578377486781
2.195,-0.0252503107065476
2.2,-0.0254443868133883
2.205,-0.0256400735950649
2.21,-0.0258373789636525
2.215,-0.0260363112223796
2.22,-0.0262368790707431
2.225,-0.0264390916098228
2.23,-0.0266429583478085
2.235,-0.0268484892057437
2.24,-0.0270556945234993
2.245,-0.0272645850659846
2.25,-0.02747517202964
2.255,-0.027687467049188
2.26,-0.0279014822046826
2.265,-0.0281172300288912
2.27,-0.0283347235149771
2.275,-0.0285539761245927
2.28,-0.0287750017963175
2.285,-0.0289978149545342
2.29,-0.029222430518758
2.295,-0.0294488639134442
2.3,-0.0296771310783166
2.305,-0.0299072484792833
2.31,-0.0301392331199617
2.315,-0.0303731025538688
2.32,-0.0306088748973578
2.325,-0.0308465688433629
2.33,-0.0310862036759982
2.335,-0.0313277992861422
2.34,-0.0315713761880586
2.345,-0.0318169555372018
2.35,-0.0320645591492847
2.355,-0.0323142095207644
2.36,-0.0325659298508998
2.365,-0.0328197440655398
2.37,-0.0330756768428339
2.375,-0.0333337536410931
2.38,-0.0335940007290296
2.385,-0.0338564452186813
2.39,-0.0341211151012893
2.395,-0.0343880392865588
2.4,-0.034657247645651
2.405,-0.0349287710583952
2.41,-0.035202641465317
2.415,-0.0354788919249863
2.42,-0.0357575566775095
2.425,-0.0360386712149343
2.43,-0.0363222723595051
2.435,-0.0366083983508955
2.44,-0.0368970889436657
2.445,-0.0371883855164308
2.45,-0.0374823311944794
2.455,-0.0377789709878025
2.46,-0.0380783519469691
2.465,-0.0383805233395199
2.47,-0.0386855368502184
2.475,-0.0389934468089464
2.48,-0.0393043104508048
2.485,-0.039618188213847
2.49,-0.0399351440808207
2.495,-0.04025524597266
2.5,-0.0405785662028578
2.505,-0.040905182003868
2.51,-0.0412351761388191
2.515,-0.0415686376147249
2.52,-0.0419056625168571
2.525,-0.0422463549882263
2.53,-0.0425908283835323
2.535,-0.0429392066336762
2.54,-0.0432916258654609
2.545,-0.0436482363317364
2.55,-0.0440092047209638
2.555,-0.0443747169324745
2.56,-0.0447449814260005
2.565,-0.0451202332827223
2.57,-0.0455007391523488
2.575,-0.0458868033090169
2.58,-0.0462787751024188
2.585,-0.0466770581738599
2.59,-0.0470821219176104
2.595,-0.047494515814857
2.6,-0.0479148874642742
2.605,-0.0483440053973163
2.61,-0.0487827881226368
2.615,-0.0492323413259947
2.62,-0.0496940058047401
2.625,-0.0501694195994526
2.63,-0.0506605989752203
2.635,-0.0511700444908007
2.64,-0.0517008804630289
2.645,-0.0522570387272281
2.65,-0.0528435005898441
2.655,-0.0534666137054051
2.66,-0.0541345016553916
2.665,-0.054857579170398
2.67,-0.0556491657063175
2.675,-0.0565261335230816
2.68,-0.0575093900698519
2.685,-0.0586236958209616
2.69,-0.0598957264206432
2.695,-0.0613482823772325
2.7,-0.0629873572264673
2.705,-0.0647789755256803
2.71,-0.0666187722705036
2.715,-0.068314588056261
2.72,-0.0696216134274881
2.725,-0.0703483221900972
2.73,-0.0704676060737488
2.735,-0.0701262219939116
2.74,-0.069546904293519
2.745,-0.0689231706446182
2.75,-0.0683753873955873
2.755,-0.0679580676752076
2.76,-0.0676839382850885
2.765,-0.0675447453346375
2.77,-0.0675241494946707
2.775,-0.0676043476443215
2.78,-0.0677689531721108
2.785,-0.0680039571505489
2.79,-0.0682978141723468
2.795,-0.0686411837558546
2.8,-0.0690265749038813
2.805,-0.069447998732412
2.81,-0.0699006667897697
2.815,-0.0703807429871542
2.82,-0.070885145207612
2.825,-0.0714113888818814
2.83,-0.0719574644598878
2.835,-0.0725217416250278
2.84,-0.0731028943534007
2.845,-0.0736998421298578
2.85,-0.0743117036665494
2.855,-0.0749377603045022
2.86,-0.0755774269330607
2.865,-0.0762302287667573
2.87,-0.0768957827049904
2.875,-0.0775737822936595
2.88,-0.0782639855316783
2.885,-0.0789662049353998
2.89,-0.0796802994042004
2.895,-0.0804061675298931
2.9,-0.0811437420693285
2.905,-0.0818929853585262
2.91,-0.0826538854926068
2.915,-0.0834264531313818
2.92,-0.084210718818457
2.925,-0.0850067307236287
2.93,-0.0858145527356554
2.935,-0.0866342628462789
2.94,-0.0874659517772569
2.945,-0.0883097218110471
2.95,-0.089165685792643
2.955,-0.0900339662759372
2.96,-0.090914694792438
2.965,-0.0918080112240107
2.97,-0.0927140632643026
2.975,-0.0936330059560744
2.98,-0.0945650012936234
2.985,-0.0955102178813689
2.99,-0.0964688306408242
2.995,-0.0974410205595812
3,-0.0984269744767745
