"Freq [GHz]","dB(S(ground_T1,ground_T1)) []"
2,-0.0400346852299052
2.005,-0.0406592558563743
2.01,-0.0412945179867103
2.015,-0.0419406956340626
2.02,-0.0425980186292124
2.025,-0.0432667228234216
2.03,-0.0439470502989905
2.035,-0.0446392495879888
2.04,-0.0453435758994226
2.045,-0.0460602913552851
2.05,-0.0467896652358323
2.055,-0.0475319742345612
2.06,-0.0482875027232486
2.065,-0.0490565430276101
2.07,-0.0498393957139689
2.075,-0.0506363698875065
2.08,-0.0514477835026092
2.085,-0.0522739636858585
2.09,-0.0531152470722908
2.095,-0.0539719801555135
2.1,-0.0548445196523786
2.105,-0.0557332328828521
2.11,-0.05663849816585
2.115,-0.0575607052317991
2.12,-0.0585002556527077
2.125,-0.0594575632906378
2.13,-0.0604330547654521
2.135,-0.0614271699427937
2.14,-0.0624403624433024
2.145,-0.0634731001741269
2.15,-0.0645258658838442
2.155,-0.0655991577419638
2.16,-0.0666934899442975
2.165,-0.0678093933454635
2.17,-0.0689474161199477
2.175,-0.0701081244532114
2.18,-0.0712921032643768
2.185,-0.072499956962152
2.19,-0.0737323102357776
2.195,-0.0749898088827828
2.2,-0.0762731206755926
2.205,-0.0775829362690094
2.21,-0.0789199701508106
2.215,-0.0802849616377906
2.22,-0.0816786759197329
2.225,-0.0831019051539736
2.23,-0.084555469613327
2.235,-0.0860402188903712
2.24,-0.0875570331612588
2.245,-0.089106824512419
2.25,-0.090690538333724
2.255,-0.0923091547819267
2.26,-0.0939636903184418
2.265,-0.0956551993257919
2.27,-0.0973847758072736
2.275,-0.0991535551748222
2.28,-0.100962716130238
2.285,-0.102813482645408
2.29,-0.104707126047444
2.295,-0.106644967215098
2.3,-0.108628378893274
2.305,-0.11065878813287
2.31,-0.112737678863727
2.315,-0.114866594608976
2.32,-0.117047141349694
2.325,-0.119280990549353
2.33,-0.121569882348281
2.335,-0.123915628939055
2.34,-0.126320118134546
2.345,-0.128785317141154
2.35,-0.131313276550804
2.355,-0.133906134566101
2.36,-0.136566121474285
2.365,-0.139295564386699
2.37,-0.142096892261797
2.375,-0.144972641231059
2.38,-0.147925460248722
2.385,-0.150958117087774
2.39,-0.1540735047065
2.395,-0.157274648011766
2.4,-0.160564711047196
2.405,-0.163947004636859
2.41,-0.167424994517332
2.415,-0.17100230999384
2.42,-0.174682753159024
2.425,-0.17847030871612
2.43,-0.182369154451751
2.435,-0.186383672407427
2.44,-0.190518460802965
2.445,-0.194778346769553
2.45,-0.199168399955256
2.455,-0.203693947071172
2.46,-0.208360587452411
2.465,-0.213174209714714
2.47,-0.218141009594681
2.475,-0.22326750906957
2.48,-0.228560576861259
2.485,-0.234027450438721
2.49,-0.239675759643767
2.495,-0.245513552076614
2.5,-0.251549320390668
2.505,-0.257792031660059
2.51,-0.26425115899932
2.515,-0.27093671563187
2.52,-0.277859291623211
2.525,-0.285030093516218
2.53,-0.292460987129343
2.535,-0.300164543805055
2.54,-0.308154090424823
2.545,-0.31644376353958
2.55,-0.325048568000646
2.555,-0.3339844405164
2.56,-0.343268318604937
2.565,-0.352918215463106
2.57,-0.362953301328313
2.575,-0.373393991972308
2.58,-0.384262045036339
2.585,-0.39558066499573
2.59,-0.40737461763042
2.595,-0.419670354977111
2.6,-0.432496151850277
2.605,-0.445882255144961
2.61,-0.459861047275747
2.615,-0.474467225265934
2.62,-0.489737997181368
2.625,-0.505713297807071
2.63,-0.522436025695604
2.635,-0.53995230397744
2.64,-0.558311767620128
2.645,-0.577567880159708
2.65,-0.597778283310637
2.655,-0.619005183296107
2.66,-0.641315778237114
2.665,-0.66478273150502
2.67,-0.689484696589185
2.675,-0.71550689977108
2.68,-0.742941787743208
2.685,-0.771889748282178
2.69,-0.802459913199672
2.695,-0.83477105407594
2.7,-0.868952582754387
2.705,-0.905145670274505
2.71,-0.943504499880716
2.715,-0.984197672010434
2.72,-1.02740978178778
2.725,-1.07334319259135
2.73,-1.12222003279879
2.735,-1.1742844469268
2.74,-1.22980513718755
2.745,-1.28907823710368
2.75,-1.35243056542026
2.755,-1.42022331632246
2.76,-1.49285625115571
2.765,-1.57077246776309
2.77,-1.6544638365968
2.775,-1.74447720844237
2.78,-1.84142151758756
2.785,-1.94597592746929
2.79,-2.05889919444864
2.795,-2.18104046104457
2.8,-2.31335173498246
2.805,-2.45690236797531
2.81,-2.61289592277094
2.815,-2.78268991512482
2.82,-2.96781904831997
2.825,-3.17002273523631
2.83,-3.39127794674197
2.835,-3.63383876495524
2.84,-3.90028450004565
2.845,-4.1935789167211
2.85,-4.51714411375911
2.855,-4.8749540650679
2.86,-5.27165501122795
2.865,-5.71272317816195
2.87,-6.20467532258771
2.875,-6.75535537758917
2.88,-7.37433263848991
2.885,-8.07346609679569
2.89,-8.86771955639414
2.895,-9.77635745182434
2.9,-10.8247105507438
2.905,-12.0467344006918
2.91,-13.4883555269782
2.915,-15.2098933155755
2.92,-17.2763620108062
2.925,-19.6752524492136
2.93,-21.9156320080722
2.935,-22.3998741327146
2.94,-20.595282419918
2.945,-18.1743200031963
2.95,-16.0037295327466
2.955,-14.1914219298162
2.96,-12.6822678068611
2.965,-11.4114498882487
2.97,-10.3278030752142
2.975,-9.39337631545871
2.98,-8.58001859712476
2.985,-7.86650067080999
2.99,-7.23648430219644
2.995,-6.6771416056815
3,-6.17821566010295
