"Freq [GHz]","dB(S(ground_T1,ground_T1)) []"
2,-0.0362698115155841
2.005,-0.0363879647132929
2.01,-0.0365144193177577
2.015,-0.036649188552026
2.02,-0.0367922858613319
2.025,-0.0369437249289618
2.03,-0.0371035196925794
2.035,-0.0372716843610339
2.04,-0.0374482334317058
2.045,-0.03763318170835
2.05,-0.0378265443194665
2.055,-0.0380283367372447
2.06,-0.0382385747970361
2.065,-0.0384572747174237
2.07,-0.0386844531208704
2.075,-0.0389201270549724
2.08,-0.0391643140143322
2.085,-0.0394170319630802
2.09,-0.0396782993580219
2.095,-0.0399481351724693
2.1,-0.0402265589207864
2.105,-0.0405135906835853
2.11,-0.0408092511336915
2.115,-0.041113561562829
2.12,-0.0414265439090879
2.125,-0.0417482207851491
2.13,-0.0420786155073432
2.135,-0.0424177521255129
2.14,-0.0427656554537407
2.145,-0.0431223511019332
2.15,-0.0434878655083245
2.155,-0.0438622259728704
2.16,-0.0442454606916089
2.165,-0.0446375987919994
2.17,-0.04503867036923
2.175,-0.0454487065235851
2.18,-0.0458677393988398
2.185,-0.0462958022217728
2.19,-0.0467329293427583
2.195,-0.0471791562775195
2.2,-0.0476345197500685
2.205,-0.0480990577368549
2.21,-0.0485728095121464
2.215,-0.0490558156947028
2.22,-0.0495481182957739
2.225,-0.0500497607684448
2.23,-0.0505607880583731
2.235,-0.0510812466559679
2.24,-0.0516111846500413
2.245,-0.052150651782989
2.25,-0.0526996995075119
2.255,-0.0532583810449652
2.26,-0.0538267514453636
2.265,-0.0544048676490669
2.27,-0.0549927885502493
2.275,-0.0555905750621535
2.28,-0.056198290184203
2.285,-0.0568159990710486
2.29,-0.0574437691035497
2.295,-0.0580816699618047
2.3,-0.0587297737002829
2.305,-0.0593881548250668
2.31,-0.0600568903733446
2.315,-0.0607360599951607
2.32,-0.0614257460375363
2.325,-0.0621260336309874
2.33,-0.0628370107785478
2.335,-0.0635587684473568
2.34,-0.0642914006628944
2.345,-0.0650350046059352
2.35,-0.0657896807123262
2.355,-0.0665555327756326
2.36,-0.0673326680528036
2.365,-0.0681211973728635
2.37,-0.068921235248826
2.375,-0.0697328999928327
2.38,-0.0705563138346654
2.385,-0.0713916030437478
2.39,-0.0722388980547076
2.395,-0.0730983335966244
2.4,-0.0739700488261054
2.405,-0.07485418746425
2.41,-0.0757508979376836
2.415,-0.0766603335237452
2.42,-0.0775826524999966
2.425,-0.0785180182981465
2.43,-0.0794665996625675
2.435,-0.0804285708135232
2.44,-0.0814041116152687
2.445,-0.0823934077491828
2.45,-0.0833966508920701
2.455,-0.0844140388998153
2.46,-0.085445775996574
2.465,-0.0864920729696268
2.47,-0.0875531473701318
2.475,-0.0886292237199496
2.48,-0.0897205337247006
2.485,-0.0908273164933118
2.49,-0.0919498187642073
2.495,-0.0930882951384191
2.5,-0.0942430083197626
2.505,-0.0954142293623891
2.51,-0.0966022379258798
2.515,-0.0978073225381997
2.52,-0.0990297808666898
2.525,-0.100269919997432
2.53,-0.101528056723205
2.535,-0.102804517840359
2.54,-0.10409964045485
2.545,-0.105413772297786
2.55,-0.106747272050758
2.555,-0.108100509681318
2.56,-0.109473866788888
2.565,-0.110867736961492
2.57,-0.112282526143646
2.575,-0.113718653015781
2.58,-0.115176549385573
2.585,-0.116656660591601
2.59,-0.11815944591971
2.595,-0.119685379032532
2.6,-0.121234948412589
2.605,-0.122808657819433
2.61,-0.124407026761292
2.615,-0.12603059098172
2.62,-0.127679902961756
2.625,-0.129355532438064
2.63,-0.13105806693768
2.635,-0.132788112329846
2.64,-0.134546293395537
2.645,-0.136333254415315
2.65,-0.138149659776028
2.655,-0.139996194597116
2.66,-0.141873565377101
2.665,-0.143782500660967
2.67,-0.145723751729145
2.675,-0.147698093308841
2.68,-0.149706324308447
2.685,-0.151749268575829
2.69,-0.153827775681301
2.695,-0.155942721726113
2.7,-0.15809501017737
2.705,-0.160285572730194
2.71,-0.162515370198131
2.715,-0.16478539343272
2.72,-0.167096664273257
2.725,-0.169450236527721
2.73,-0.17184719698598
2.735,-0.174288666466339
2.74,-0.176775800896579
2.745,-0.179309792430642
2.75,-0.181891870602193
2.755,-0.184523303516296
2.76,-0.187205399080496
2.765,-0.189939506276641
2.77,-0.19272701647483
2.775,-0.195569364790909
2.78,-0.198468031488957
2.785,-0.201424543430318
2.79,-0.204440475570735
2.795,-0.207517452507157
2.8,-0.210657150075935
2.805,-0.213861297004119
2.81,-0.217131676615584
2.815,-0.220470128593866
2.82,-0.223878550803515
2.825,-0.227358901172006
2.83,-0.230913199634076
2.835,-0.234543530140644
2.84,-0.238252042734362
2.845,-0.242040955693993
2.85,-0.245912557749831
2.855,-0.249869210372499
2.86,-0.253913350137392
2.865,-0.258047491167291
2.87,-0.262274227655545
2.875,-0.266596236472385
2.88,-0.271016279857026
2.885,-0.27553720819811
2.89,-0.280161962905362
2.895,-0.284893579375124
2.9,-0.289735190052704
2.905,-0.294690027594401
2.91,-0.299761428132199
2.915,-0.304952834644119
2.92,-0.310267800433372
2.925,-0.315709992719343
2.93,-0.321283196343671
2.935,-0.326991317594573
2.94,-0.332838388152697
2.945,-0.338828569161801
2.95,-0.34496615542754
2.955,-0.351255579747731
2.96,-0.357701417377429
2.965,-0.364308390632184
2.97,-0.371081373632837
2.975,-0.378025397195174
2.98,-0.385145653867798
2.985,-0.392447503121484
2.99,-0.399936476693236
2.995,-0.407618284088267
3,-0.415498818242934
