"Freq [GHz]","dB(S(ground_T1,ground_T1)) []"
2,-0.0224774460905714
2.005,-0.0226574599591489
2.01,-0.0228388107002984
2.015,-0.0230215141641854
2.02,-0.0232055863467482
2.025,-0.0233910433925477
2.03,-0.0235779015976684
2.035,-0.0237661774126508
2.04,-0.023955887445486
2.045,-0.0241470484646653
2.05,-0.024339677402266
2.055,-0.0245337913570945
2.06,-0.0247294075979095
2.065,-0.0249265435666496
2.07,-0.0251252168817726
2.075,-0.0253254453416041
2.08,-0.0255272469277824
2.085,-0.0257306398087474
2.09,-0.0259356423432819
2.095,-0.0261422730841385
2.1,-0.0263505507817107
2.105,-0.0265604943877825
2.11,-0.0267721230593371
2.115,-0.0269854561624475
2.12,-0.0272005132762056
2.125,-0.0274173141967791
2.13,-0.0276358789414746
2.135,-0.0278562277529325
2.14,-0.0280783811033578
2.145,-0.0283023596988681
2.15,-0.0285281844838776
2.155,-0.0287558766456053
2.16,-0.0289854576186304
2.165,-0.0292169490895614
2.17,-0.0294503730017819
2.175,-0.0296857515602801
2.18,-0.0299231072365743
2.185,-0.0301624627737465
2.19,-0.0304038411915332
2.195,-0.0306472657915582
2.2,-0.030892760162642
2.205,-0.0311403481862032
2.21,-0.0313900540418006
2.215,-0.0316419022127333
2.22,-0.031895917491796
2.225,-0.0321521249871096
2.23,-0.0324105501280925
2.235,-0.0326712186715288
2.24,-0.0329341567077724
2.245,-0.0331993906670508
2.25,-0.0334669473259227
2.255,-0.0337368538138321
2.26,-0.0340091376198177
2.265,-0.0342838265993451
2.27,-0.0345609489812681
2.275,-0.0348405333749436
2.28,-0.035122608777479
2.285,-0.0354072045811226
2.29,-0.0356943505808247
2.295,-0.0359840769819093
2.3,-0.036276414407952
2.305,-0.0365713939087762
2.31,-0.0368690469686379
2.315,-0.037169405514555
2.32,-0.0374725019248323
2.325,-0.0377783690377467
2.33,-0.0380870401604035
2.335,-0.0383985490777913
2.34,-0.0387129300620201
2.345,-0.0390302178817421
2.35,-0.039350447811768
2.355,-0.0396736556428983
2.36,-0.0399998776919494
2.365,-0.0403291508119797
2.37,-0.040661512402751
2.375,-0.0409970004213842
2.38,-0.0413356533932709
2.385,-0.0416775104231849
2.39,-0.04202261120664
2.395,-0.0423709960415018
2.4,-0.0427227058398156
2.405,-0.0430777821399256
2.41,-0.0434362671188129
2.415,-0.0437982036047237
2.42,-0.0441636350900614
2.425,-0.0445326057445546
2.43,-0.0449051604287011
2.435,-0.0452813447075194
2.44,-0.0456612048645769
2.445,-0.0460447879163519
2.45,-0.0464321416268601
2.455,-0.0468233145226505
2.46,-0.0472183559080955
2.465,-0.0476173158810347
2.47,-0.0480202453487417
2.475,-0.0484271960442569
2.48,-0.0488382205430826
2.485,-0.0492533722802221
2.49,-0.0496727055676298
2.495,-0.0500962756120266
2.5,-0.0505241385331092
2.505,-0.0509563513821782
2.51,-0.0513929721611638
2.515,-0.0518340598420974
2.52,-0.0522796743870134
2.525,-0.0527298767682715
2.53,-0.0531847289893824
2.535,-0.0536442941062702
2.54,-0.054108636249012
2.545,-0.0545778206441064
2.55,-0.0550519136371976
2.555,-0.0555309827163621
2.56,-0.0560150965358898
2.565,-0.0565043249406344
2.57,-0.0569987389909049
2.575,-0.0574984109879417
2.58,-0.0580034144999601
2.585,-0.0585138243888103
2.59,-0.0590297168372444
2.595,-0.0595511693768259
2.6,-0.0600782609164699
2.605,-0.0606110717716452
2.61,-0.0611496836942833
2.615,-0.0616941799033571
2.62,-0.0622446451161794
2.625,-0.0628011655804565
2.63,-0.0633638291070581
2.635,-0.0639327251035965
2.64,-0.0645079446087661
2.645,-0.0650895803275149
2.65,-0.0656777266670457
2.655,-0.0662724797736541
2.66,-0.0668739375704723
2.665,-0.0674821997960883
2.67,-0.0680973680440984
2.675,-0.068719545803597
2.68,-0.0693488385006593
2.685,-0.0699853535407923
2.69,-0.0706292003524234
2.695,-0.0712804904314436
2.7,-0.0719393373868169
2.705,-0.072605856987294
2.71,-0.0732801672092821
2.715,-0.0739623882858358
2.72,-0.0746526427568961
2.725,-0.0753510555207172
2.73,-0.0760577538865658
2.735,-0.0767728676287219
2.74,-0.0774965290417818
2.745,-0.0782288729973561
2.75,-0.0789700370021443
2.755,-0.0797201612574483
2.76,-0.0804793887201753
2.765,-0.081247865165331
2.77,-0.0820257392500941
2.775,-0.08281316257947
2.78,-0.0836102897735912
2.785,-0.0844172785366942
2.79,-0.0852342897278522
2.795,-0.0860614874334447
2.8,-0.0868990390414831
2.805,-0.0877471153178077
2.81,-0.0886058904841824
2.815,-0.0894755422984146
2.82,-0.090356252136462
2.825,-0.0912482050766605
2.83,-0.0921515899860594
2.835,-0.0930665996090088
2.84,-0.0939934306579696
2.845,-0.0949322839066716
2.85,-0.0958833642856382
2.855,-0.0968468809801986
2.86,-0.0978230475310045
2.865,-0.0988120819371335
2.87,-0.0998142067618707
2.875,-0.100829649241214
2.88,-0.101858641395218
2.885,-0.102901420142194
2.89,-0.103958227415912
2.895,-0.105029310285837
2.9,-0.106114921080521
2.905,-0.107215317514198
2.91,-0.108330762816737
2.915,-0.109461525866927
2.92,-0.110607881329364
2.925,-0.111770109794858
2.93,-0.112948497924571
2.935,-0.114143338597965
2.94,-0.115354931064662
2.945,-0.116583581100281
2.95,-0.117829601166482
2.955,-0.119093310575183
2.96,-0.120375035657191
2.965,-0.121675109935296
2.97,-0.12299387430198
2.975,-0.124331677201891
2.98,-0.125688874819141
2.985,-0.127065831269684
2.99,-0.128462918798766
2.995,-0.129880517983737
3,-0.131319017942256
