"Freq [GHz]","dB(S(ground_T1,ground_T1)) []"
2,-0.0428171362951506
2.005,-0.043361709939333
2.01,-0.0439120390034457
2.015,-0.0444681693827575
2.02,-0.045030148450712
2.025,-0.0455980250798161
2.03,-0.0461718496630202
2.035,-0.046751674135634
2.04,-0.0473375519977718
2.045,-0.0479295383373397
2.05,-0.0485276898535703
2.055,-0.0491320648811225
2.06,-0.0497427234147347
2.065,-0.0503597271344818
2.07,-0.0509831394316092
2.075,-0.0516130254349548
2.08,-0.0522494520380163
2.085,-0.0528924879265968
2.09,-0.0535422036071173
2.095,-0.0541986714355636
2.1,-0.0548619656470885
2.105,-0.0555321623862845
2.11,-0.0562093397381303
2.115,-0.056893577759654
2.12,-0.0575849585122727
2.125,-0.0582835660948762
2.13,-0.0589894866776344
2.135,-0.0597028085365616
2.14,-0.0604236220888236
2.145,-0.0611520199288459
2.15,-0.0618880968651972
2.155,-0.0626319499582842
2.16,-0.0633836785588729
2.165,-0.0641433843474423
2.17,-0.0649111713744006
2.175,-0.0656871461011544
2.18,-0.0664714174420939
2.185,-0.0672640968074632
2.19,-0.0680652981471514
2.195,-0.0688751379954426
2.2,-0.0696937355167128
2.205,-0.0705212125521089
2.21,-0.0713576936672112
2.215,-0.0722033062007471
2.22,-0.0730581803143048
2.225,-0.0739224490431275
2.23,-0.0747962483479713
2.235,-0.0756797171680782
2.24,-0.0765729974752559
2.245,-0.0774762343291086
2.25,-0.0783895759334277
2.255,-0.0793131736937842
2.26,-0.080247182276299
2.265,-0.0811917596677048
2.27,-0.0821470672366019
2.275,-0.0831132697960497
2.28,-0.0840905356674446
2.285,-0.0850790367457262
2.29,-0.086078948565964
2.295,-0.0870904503713085
2.3,-0.0881137251823739
2.305,-0.0891489598680465
2.31,-0.090196345217771
2.315,-0.0912560760153264
2.32,-0.0923283511141268
2.325,-0.0934133735140804
2.33,-0.0945113504400196
2.335,-0.0956224934217534
2.34,-0.0967470183757589
2.345,-0.097885145688537
2.35,-0.099037100301675
2.355,-0.100203111798653
2.36,-0.101383414493391
2.365,-0.102578247520626
2.37,-0.103787854928075
2.375,-0.105012485770497
2.38,-0.106252394205622
2.385,-0.107507839592031
2.39,-0.108779086588948
2.395,-0.110066405258089
2.4,-0.111370071167466
2.405,-0.112690365497304
2.41,-0.114027575148
2.415,-0.115381992850253
2.42,-0.116753917277309
2.425,-0.118143653159409
2.43,-0.11955151140047
2.435,-0.120977809196999
2.44,-0.122422870159304
2.445,-0.123887024435015
2.45,-0.12537060883495
2.455,-0.126873966961382
2.46,-0.128397449338666
2.465,-0.129941413546341
2.47,-0.131506224354676
2.475,-0.133092253862724
2.48,-0.134699881638852
2.485,-0.136329494863847
2.49,-0.137981488476562
2.495,-0.139656265322138
2.5,-0.141354236302848
2.505,-0.143075820531525
2.51,-0.144821445487639
2.515,-0.146591547175999
2.52,-0.148386570288109
2.525,-0.150206968366181
2.53,-0.152053203969784
2.535,-0.153925748845154
2.54,-0.155825084097164
2.545,-0.157751700363871
2.55,-0.159706097993754
2.555,-0.161688787225479
2.56,-0.163700288370268
2.565,-0.165741131996789
2.57,-0.167811859118526
2.575,-0.169913021383598
2.58,-0.172045181266966
2.585,-0.174208912264951
2.59,-0.176404799091988
2.595,-0.178633437879547
2.6,-0.180895436377097
2.605,-0.183191414155035
2.61,-0.185522002809421
2.615,-0.187887846168418
2.62,-0.19028960050025
2.625,-0.192727934722533
2.63,-0.195203530612793
2.635,-0.197717083019943
2.64,-0.200269300076507
2.645,-0.202860903411341
2.65,-0.205492628362587
2.655,-0.208165224190521
2.66,-0.210879454290028
2.665,-0.213636096402297
2.67,-0.216435942825358
2.675,-0.219279800623045
2.68,-0.222168491831936
2.685,-0.225102853665725
2.69,-0.228083738716503
2.695,-0.231112015152384
2.7,-0.234188566910788
2.705,-0.237314293886692
2.71,-0.24049011211512
2.715,-0.243716953947037
2.72,-0.246995768217758
2.725,-0.250327520406936
2.73,-0.253713192789054
2.735,-0.257153784573373
2.74,-0.260650312032064
2.745,-0.264203808615263
2.75,-0.267815325051616
2.755,-0.271485929432854
2.76,-0.275216707280677
2.765,-0.279008761594296
2.77,-0.28286321287662
2.775,-0.286781199137173
2.78,-0.290763875869396
2.785,-0.294812416000144
2.79,-0.298928009808621
2.795,-0.303111864812218
2.8,-0.307365205616138
2.805,-0.311689273723746
2.81,-0.316085327304187
2.815,-0.320554640913587
2.82,-0.325098505165962
2.825,-0.329718226349525
2.83,-0.334415125983925
2.835,-0.339190540313453
2.84,-0.344045819731064
2.845,-0.348982328127498
2.85,-0.35400144215958
2.855,-0.359104550431113
2.86,-0.364293052579517
2.865,-0.369568358260729
2.87,-0.374931886024446
2.875,-0.380385062071114
2.88,-0.385929318881636
2.885,-0.391566093709895
2.89,-0.397296826927797
2.895,-0.403122960211521
2.9,-0.409045934557158
2.905,-0.415067188112932
2.91,-0.421188153814428
2.915,-0.427410256808363
2.92,-0.433734911649381
2.925,-0.440163519253525
2.93,-0.446697463590837
2.935,-0.453338108098533
2.94,-0.460086791794991
2.945,-0.466944825073716
2.95,-0.473913485155099
2.955,-0.480994011172542
2.96,-0.488187598868336
2.965,-0.495495394873153
2.97,-0.502918490541864
2.975,-0.51045791531691
2.98,-0.51811462958918
2.985,-0.52588951702502
2.99,-0.533783376326651
2.995,-0.541796912392191
3,-0.549930726840248
