"Freq [GHz]","dB(S(ground_T1,ground_T1)) []"
2,-0.0158228260237614
2.005,-0.0159171400308558
2.01,-0.0160119514483405
2.015,-0.0161072766467338
2.02,-0.0162031319057972
2.025,-0.0162995334164699
2.03,-0.0163964972828033
2.035,-0.016494039523913
2.04,-0.0165921760759178
2.045,-0.0166909227938992
2.05,-0.016790295453862
2.055,-0.0168903097546988
2.06,-0.0169909813201639
2.065,-0.0170923257008637
2.07,-0.0171943583762565
2.075,-0.017297094756643
2.08,-0.0174005501851975
2.085,-0.0175047399400061
2.09,-0.0176096792360952
2.095,-0.0177153832275184
2.1,-0.0178218670094096
2.105,-0.0179291456200947
2.11,-0.0180372340432099
2.115,-0.0181461472098201
2.12,-0.0182559000005854
2.125,-0.0183665072479406
2.13,-0.0184779837382832
2.135,-0.0185903442142122
2.14,-0.0187036033767623
2.145,-0.0188177758876939
2.15,-0.0189328763717865
2.155,-0.0190489194191674
2.16,-0.0191659195876911
2.165,-0.0192838914053159
2.17,-0.0194028493725379
2.175,-0.0195228079648444
2.18,-0.0196437816352224
2.185,-0.0197657848166762
2.19,-0.0198888319247976
2.195,-0.020012937360387
2.2,-0.0201381155120942
2.205,-0.0202643807591022
2.21,-0.0203917474738817
2.215,-0.020520230024954
2.22,-0.0206498427797271
2.225,-0.0207806001073616
2.23,-0.0209125163817083
2.235,-0.0210456059842687
2.24,-0.0211798833072338
2.245,-0.0213153627565692
2.25,-0.0214520587551427
2.255,-0.0215899857459325
2.26,-0.0217291581952809
2.265,-0.0218695905962105
2.27,-0.0220112974718158
2.275,-0.0221542933786974
2.28,-0.0222985929104845
2.285,-0.0224442107014216
2.29,-0.0225911614300145
2.295,-0.0227394598227723
2.3,-0.0228891206579977
2.305,-0.0230401587696756
2.31,-0.0231925890514377
2.315,-0.0233464264606006
2.32,-0.0235016860222847
2.325,-0.0236583828336544
2.33,-0.0238165320681913
2.335,-0.0239761489801035
2.34,-0.0241372489088234
2.345,-0.0242998472835671
2.35,-0.024463959628044
2.355,-0.0246296015652295
2.36,-0.0247967888222572
2.365,-0.0249655372354199
2.37,-0.0251358627552719
2.375,-0.0253077814518587
2.38,-0.0254813095200499
2.385,-0.0256564632849969
2.39,-0.025833259207709
2.395,-0.0260117138907655
2.4,-0.0261918440841486
2.405,-0.0263736666912055
2.41,-0.0265571987747518
2.415,-0.0267424575633209
2.42,-0.0269294604575399
2.425,-0.0271182250366685
2.43,-0.027308769065282
2.435,-0.0275011105001008
2.44,-0.0276952674969993
2.445,-0.0278912584181587
2.45,-0.0280891018393899
2.455,-0.0282888165576428
2.46,-0.0284904215986623
2.465,-0.0286939362248652
2.47,-0.0288993799433594
2.475,-0.0291067725141812
2.48,-0.0293161339587253
2.485,-0.0295274845683602
2.49,-0.0297408449132634
2.495,-0.0299562358514567
2.5,-0.0301736785380639
2.505,-0.0303931944347842
2.51,-0.0306148053196116
2.515,-0.0308385332967491
2.52,-0.0310644008068032
2.525,-0.0312924306371955
2.53,-0.0315226459328465
2.535,-0.0317550702070959
2.54,-0.031989727352908
2.545,-0.0322266416543365
2.55,-0.0324658377982676
2.555,-0.0327073408864698
2.56,-0.0329511764479003
2.565,-0.0331973704513448
2.57,-0.0334459493183543
2.575,-0.0336969399364957
2.58,-0.0339503696729406
2.585,-0.0342062663883646
2.59,-0.0344646584512131
2.595,-0.0347255747523159
2.6,-0.0349890447198341
2.605,-0.0352550983346206
2.61,-0.0355237661459301
2.615,-0.0357950792875253
2.62,-0.0360690694941908
2.625,-0.0363457691186446
2.63,-0.0366252111488899
2.635,-0.0369074292259823
2.64,-0.0371924576622444
2.645,-0.0374803314599419
2.65,-0.0377710863304267
2.655,-0.038064758713757
2.66,-0.0383613857988057
2.665,-0.0386610055438909
2.67,-0.0389636566979025
2.675,-0.0392693788219877
2.68,-0.0395782123117625
2.685,-0.0398901984200993
2.69,-0.0402053792804811
2.695,-0.040523797930966
2.7,-0.0408454983387264
2.705,-0.0411705254252635
2.71,-0.0414989250922104
2.715,-0.0418307442478278
2.72,-0.042166030834176
2.725,-0.0425048338549583
2.73,-0.0428472034041016
2.735,-0.0431931906950675
2.74,-0.0435428480908966
2.745,-0.0438962291350629
2.75,-0.0442533885830736
2.755,-0.0446143824349393
2.76,-0.0449792679684469
2.765,-0.0453481037732919
2.77,-0.0457209497861326
2.775,-0.0460978673265093
2.78,-0.0464789191337286
2.785,-0.0468641694046964
2.79,-0.0472536838327404
2.795,-0.0476475296474432
2.8,-0.0480457756555284
2.805,-0.0484484922828011
2.81,-0.0488557516172058
2.815,-0.0492676274530122
2.82,-0.0496841953361535
2.825,-0.0501055326107742
2.83,-0.0505317184670044
2.835,-0.05096283398999
2.84,-0.0513989622102325
2.845,-0.0518401881552636
2.85,-0.0522865989026822
2.855,-0.0527382836346197
2.86,-0.0531953336936443
2.865,-0.0536578426401792
2.87,-0.0541259063114204
2.875,-0.0545996228818795
2.88,-0.0550790929255254
2.885,-0.0555644194795847
2.89,-0.056055708110101
2.895,-0.0565530669792241
2.9,-0.0570566069143454
2.905,-0.0575664414790929
2.91,-0.0580826870462455
2.915,-0.0586054628726489
2.92,-0.059134891176153
2.925,-0.0596710972146524
2.93,-0.0602142093672952
2.935,-0.0607643592178928
2.94,-0.0613216816406397
2.945,-0.061886314888178
2.95,-0.0624584006820708
2.955,-0.0630380843057962
2.96,-0.063625514700285
2.965,-0.0642208445621119
2.97,-0.0648242304444148
2.975,-0.0654358328605862
2.98,-0.066055816390891
2.985,-0.0666843497920115
2.99,-0.0673216061096864
2.995,-0.0679677627944783
3,-0.0686230018207865
