"Freq [GHz]","dB(S(ground_T1,ground_T1)) []"
2,-0.0140116309884454
2.005,-0.014056585805156
2.01,-0.0141019021576895
2.015,-0.0141475852825561
2.02,-0.0141936403904401
2.025,-0.0142400726666564
2.03,-0.0142868872715621
2.035,-0.0143340893410094
2.04,-0.0143816839867816
2.045,-0.0144296762970232
2.05,-0.0144780713366918
2.055,-0.0145268741479992
2.06,-0.0145760897508422
2.065,-0.0146257231432632
2.07,-0.0146757793018861
2.075,-0.014726263182371
2.08,-0.0147771797198558
2.085,-0.0148285338294143
2.09,-0.0148803304065065
2.095,-0.0149325743274328
2.1,-0.0149852704497899
2.105,-0.0150384236129261
2.11,-0.0150920386384072
2.115,-0.0151461203304736
2.12,-0.0152006734765057
2.125,-0.0152557028474863
2.13,-0.0153112131984714
2.135,-0.0153672092690636
2.14,-0.0154236957838726
2.145,-0.0154806774530014
2.15,-0.0155381589725144
2.155,-0.0155961450249165
2.16,-0.0156546402796435
2.165,-0.0157136493935309
2.17,-0.0157731770113088
2.175,-0.0158332277660896
2.18,-0.0158938062798527
2.185,-0.0159549171639425
2.19,-0.0160165650195685
2.195,-0.0160787544382922
2.2,-0.0161414900025407
2.205,-0.0162047762860951
2.21,-0.0162686178546244
2.215,-0.0163330192661559
2.22,-0.0163979850716283
2.225,-0.0164635198153825
2.23,-0.0165296280356821
2.235,-0.0165963142652493
2.24,-0.0166635830317724
2.245,-0.0167314388584474
2.25,-0.016799886264501
2.255,-0.0168689297657342
2.26,-0.0169385738750492
2.265,-0.0170088231029993
2.27,-0.0170796819583289
2.275,-0.0171511549485305
2.28,-0.0172232465803897
2.285,-0.0172959613605412
2.29,-0.0173693037960272
2.295,-0.0174432783948705
2.3,-0.017517889666628
2.305,-0.0175931421229796
2.31,-0.017669040278281
2.315,-0.0177455886501657
2.32,-0.0178227917601101
2.325,-0.0179006541340285
2.33,-0.0179791803028721
2.335,-0.0180583748032111
2.34,-0.018138242177837
2.345,-0.0182187869763845
2.35,-0.0183000137559194
2.355,-0.0183819270815646
2.36,-0.0184645315271088
2.365,-0.0185478316756442
2.37,-0.0186318321201747
2.375,-0.0187165374642712
2.38,-0.0188019523226908
2.385,-0.0188880813220223
2.39,-0.0189749291013417
2.395,-0.0190625003128546
2.4,-0.0191507996225675
2.405,-0.0192398317109293
2.41,-0.0193296012735191
2.415,-0.0194201130217115
2.42,-0.0195113716833553
2.425,-0.0196033820034587
2.43,-0.019696148744875
2.435,-0.0197896766890096
2.44,-0.0198839706365067
2.445,-0.0199790354079705
2.45,-0.0200748758446665
2.455,-0.0201714968092445
2.46,-0.0202689031864656
2.465,-0.020367099883934
2.47,-0.0204660918328305
2.475,-0.0205658839886531
2.48,-0.0206664813319816
2.485,-0.0207678888692152
2.49,-0.0208701116333436
2.495,-0.0209731546847253
2.5,-0.0210770231118472
2.505,-0.0211817220321187
2.51,-0.0212872565926566
2.515,-0.0213936319710876
2.52,-0.0215008533763436
2.525,-0.0216089260494809
2.53,-0.0217178552644895
2.535,-0.0218276463291303
2.54,-0.0219383045857549
2.545,-0.0220498354121562
2.55,-0.0221622442224157
2.555,-0.0222755364677419
2.56,-0.0223897176373647
2.565,-0.022504793259379
2.57,-0.0226207689016351
2.575,-0.0227376501726307
2.58,-0.022855442722395
2.585,-0.0229741522434013
2.59,-0.0230937844714712
2.595,-0.0232143451867086
2.6,-0.0233358402144175
2.605,-0.0234582754260331
2.61,-0.0235816567400919
2.615,-0.0237059901231658
2.62,-0.0238312815908302
2.625,-0.0239575372086526
2.63,-0.0240847630931548
2.635,-0.0242129654128196
2.64,-0.0243421503890842
2.645,-0.0244723242973554
2.65,-0.0246034934680345
2.655,-0.0247356642875363
2.66,-0.0248688431993412
2.665,-0.0250030367050424
2.67,-0.0251382513654011
2.675,-0.0252744938014298
2.68,-0.0254117706954588
2.685,-0.0255500887922415
2.69,-0.0256894549000511
2.695,-0.0258298758917953
2.7,-0.0259713587061317
2.705,-0.0261139103486298
2.71,-0.0262575378928813
2.715,-0.0264022484816852
2.72,-0.0265480493282161
2.725,-0.0266949477171814
2.73,-0.0268429510060508
2.735,-0.026992066626224
2.74,-0.027142302084273
2.745,-0.0272936649631644
2.75,-0.0274461629234975
2.755,-0.0275998037047569
2.76,-0.027754595126583
2.765,-0.0279105450900495
2.77,-0.0280676615789618
2.775,-0.028225952661146
2.78,-0.0283854264897864
2.785,-0.0285460913047434
2.79,-0.028707955433905
2.795,-0.0288710272945395
2.8,-0.0290353153946826
2.805,-0.0292008283345098
2.81,-0.0293675748077438
2.815,-0.029535563603065
2.82,-0.0297048036055493
2.825,-0.0298753037981134
2.83,-0.03004707326296
2.835,-0.0302201211830744
2.84,-0.0303944568436932
2.845,-0.0305700896338267
2.85,-0.0307470290477715
2.855,-0.0309252846866454
2.86,-0.0311048662599494
2.865,-0.0312857835871296
2.87,-0.0314680465991634
2.875,-0.031651665340168
2.88,-0.0318366499690061
2.885,-0.0320230107609433
2.89,-0.0322107581092719
2.895,-0.0323999025270174
2.9,-0.0325904546485904
2.905,-0.0327824252315196
2.91,-0.0329758251581611
2.915,-0.0331706654374541
2.92,-0.0333669572066594
2.925,-0.033564711733168
2.93,-0.0337639404162779
2.935,-0.033964654789016
2.94,-0.0341668665199823
2.945,-0.0343705874152006
2.95,-0.0345758294199954
2.955,-0.0347826046208925
2.96,-0.0349909252475296
2.965,-0.0352008036745983
2.97,-0.035412252423806
2.975,-0.0356252841658439
2.98,-0.0358399117224002
2.985,-0.0360561480681745
2.99,-0.036274006332928
2.995,-0.036493499803544
3,-0.0367146419261176
