"Freq [GHz]","dB(S(ground_T1,ground_T1)) []"
2,-0.757051050699227
2.005,-0.65914715930972
2.01,-0.579347130445887
2.015,-0.513549577675931
2.02,-0.458723595782256
2.025,-0.412599112473254
2.03,-0.373453833347778
2.035,-0.339964986371376
2.04,-0.31110489324412
2.045,-0.286066493466219
2.05,-0.264209575381059
2.055,-0.24502149308791
2.06,-0.228088137719932
2.065,-0.213072252151191
2.07,-0.199697063700738
2.075,-0.1877338096152
2.08,-0.176992141430328
2.085,-0.167312679268712
2.09,-0.158561186660392
2.095,-0.150623977638986
2.1,-0.143404268741506
2.105,-0.136819261320099
2.11,-0.130797792568211
2.115,-0.125278432592765
2.12,-0.120207933702038
2.125,-0.115539959614586
2.13,-0.111234038500722
2.135,-0.107254696053393
2.14,-0.103570734164001
2.145,-0.100154627986486
2.15,-0.0969820197479289
2.155,-0.0940312920025162
2.16,-0.0912832064218662
2.165,-0.0887205968880984
2.17,-0.0863281077720356
2.175,-0.0840919699620941
2.18,-0.0819998085550958
2.185,-0.080040477201371
2.19,-0.0782039149686684
2.195,-0.0764810222964978
2.2,-0.0748635531878995
2.205,-0.0733440212559747
2.21,-0.0719156176282838
2.215,-0.0705721390299482
2.22,-0.0693079246289184
2.225,-0.0681178004447237
2.23,-0.0669970303031759
2.235,-0.0659412724709471
2.24,-0.0649465412306847
2.245,-0.0640091727637883
2.25,-0.0631257947977061
2.255,-0.0622932995505355
2.26,-0.0615088195698006
2.265,-0.0607697061170241
2.27,-0.0600735097961214
2.275,-0.0594179631633716
2.28,-0.0588009650907376
2.285,-0.0582205666834544
2.29,-0.0576749585779137
2.295,-0.0571624594674454
2.3,-0.0566815057223476
2.305,-0.056230641986633
2.31,-0.0558085126480085
2.315,-0.0554138540898032
2.32,-0.0550454876441223
2.325,-0.0547023131748775
2.33,-0.0543833032273069
2.335,-0.0540874976877881
2.34,-0.0538139989039341
2.345,-0.0535619672204119
2.35,-0.0533306168907506
2.355,-0.0531192123296457
2.36,-0.0529270646740062
2.365,-0.0527535286243154
2.37,-0.0525979995407692
2.375,-0.0524599107713275
2.38,-0.0523387311910467
2.385,-0.0522339629341946
2.39,-0.0521451393024175
2.395,-0.0520718228338999
2.4,-0.052013603519917
2.405,-0.0519700971564851
2.41,-0.0519409438199709
2.415,-0.0519258064566172
2.42,-0.0519243695768157
2.425,-0.0519363380459037
2.43,-0.0519614359639683
2.435,-0.0519994056278368
2.44,-0.0520500065690904
2.445,-0.0521130146625429
2.45,-0.0521882213000414
2.455,-0.0522754326250485
2.46,-0.052374468823855
2.465,-0.0524851634696397
2.47,-0.0526073629160443
2.475,-0.0527409257372795
2.48,-0.0528857222120405
2.485,-0.0530416338489158
2.49,-0.0532085529512812
2.495,-0.053386382219918
2.5,-0.0535750343919726
2.505,-0.0537744319151694
2.51,-0.0539845066565062
2.515,-0.0542051996450233
2.52,-0.0544364608486521
2.525,-0.0546782489855315
2.53,-0.0549305313706818
2.535,-0.0551932837995188
2.54,-0.0554664904702769
2.545,-0.0557501439482488
2.55,-0.0560442451756621
2.555,-0.0563488035321565
2.56,-0.0566638369521737
2.565,-0.05698937210743
2.57,-0.0573254446646315
2.575,-0.0576720996314826
2.58,-0.0580293918073547
2.585,-0.0583973863595035
2.59,-0.0587761595512801
2.595,-0.0591657996562253
2.6,-0.0595664081014218
2.605,-0.0599781008960054
2.61,-0.0604010104174701
2.615,-0.0608352876502987
2.62,-0.0612811050013495
2.625,-0.0617386598564901
2.63,-0.0622081790979758
2.635,-0.0626899248777409
2.64,-0.0631842020472
2.645,-0.063691367792238
2.65,-0.0642118442327111
2.655,-0.0647461350482803
2.66,-0.0652948476325122
2.665,-0.0658587229252263
2.67,-0.0664386760398891
2.675,-0.0670358522657402
2.68,-0.0676517052686887
2.685,-0.0682881078105828
2.69,-0.0689475108311393
2.695,-0.0696331755979911
2.7,-0.0703495180348037
2.705,-0.0711026280105694
2.71,-0.071901065490688
2.715,-0.0727570997153307
2.72,-0.0736886599808671
2.725,-0.0747224152613833
2.73,-0.075898555452168
2.735,-0.0772777484296945
2.74,-0.0789492805031857
2.745,-0.0810326382910892
2.75,-0.0836423212176503
2.755,-0.0867390742798635
2.76,-0.0898163196439343
2.765,-0.0918251478582593
2.77,-0.0921019654764143
2.775,-0.0911985287134693
2.78,-0.0900763764679989
2.785,-0.0892519569401476
2.79,-0.0888302485236133
2.795,-0.0887570025929468
2.8,-0.0889507913125711
2.805,-0.0893429468239503
2.81,-0.089883124611554
2.815,-0.0905360080772506
2.82,-0.0912770671844434
2.825,-0.0920891964902081
2.83,-0.0929603556388402
2.835,-0.093881977612646
2.84,-0.094847904888532
2.845,-0.0958536756872421
2.85,-0.0968960403378381
2.855,-0.0979726294008134
2.86,-0.0990817227964224
2.865,-0.100222086966756
2.87,-0.101392858469383
2.875,-0.102593459689955
2.88,-0.103823537072185
2.885,-0.105082915340529
2.89,-0.106371563224556
2.895,-0.107689567554732
2.9,-0.109037113521271
2.905,-0.110414469519904
2.91,-0.111821975447163
2.915,-0.113260033615746
2.92,-0.114729101679106
2.925,-0.116229687111056
2.93,-0.117762342899718
2.935,-0.119327664198224
2.94,-0.120926285735703
2.945,-0.122558879837692
2.95,-0.124226154939426
2.955,-0.125928854501175
2.96,-0.127667756254614
2.965,-0.12944367172433
2.97,-0.131257445980206
2.975,-0.133109957585639
2.98,-0.13500211871353
2.985,-0.136934875407739
2.99,-0.138909207972059
2.995,-0.140926131472324
3,-0.142986696340199
