"Freq [GHz]","dB(S(ground_T1,ground_T1)) []"
2,-0.0143634555282919
2.005,-0.0144124646028963
2.01,-0.014461871050853
2.015,-0.0145116788417659
2.02,-0.0145618919430178
2.025,-0.0146125143199949
2.03,-0.0146635499363343
2.035,-0.0147150027541635
2.04,-0.014766876734319
2.045,-0.0148191758366185
2.05,-0.014871904020067
2.055,-0.0149250652431253
2.06,-0.0149786634639328
2.065,-0.0150327026405676
2.07,-0.0150871867312664
2.075,-0.0151421196947006
2.08,-0.015197505490191
2.085,-0.0152533480779792
2.09,-0.0153096514194589
2.095,-0.0153664194774308
2.1,-0.0154236562163574
2.105,-0.0154813656026061
2.11,-0.0155395516047097
2.115,-0.0155982181936064
2.12,-0.0156573693429131
2.125,-0.0157170090291657
2.13,-0.0157771412320811
2.135,-0.0158377699348217
2.14,-0.0158988991242464
2.145,-0.0159605327911805
2.15,-0.0160226749306635
2.155,-0.0160853295422309
2.16,-0.0161485006301738
2.165,-0.0162121922037939
2.17,-0.0162764082776902
2.175,-0.0163411528720129
2.18,-0.0164064300127477
2.185,-0.0164722437319818
2.19,-0.0165385980681727
2.195,-0.0166054970664395
2.2,-0.0166729447788298
2.205,-0.0167409452645976
2.21,-0.016809502590497
2.215,-0.016878620831046
2.22,-0.0169483040688329
2.225,-0.0170185563947818
2.23,-0.0170893819084605
2.235,-0.0171607847183533
2.24,-0.0172327689421664
2.245,-0.0173053387071163
2.25,-0.0173784981502194
2.255,-0.017452251418605
2.26,-0.0175266026698065
2.265,-0.0176015560720547
2.27,-0.0176771158046022
2.275,-0.0177532860580088
2.28,-0.0178300710344683
2.285,-0.0179074749481048
2.29,-0.0179855020252877
2.295,-0.0180641565049539
2.3,-0.0181434426389214
2.305,-0.0182233646922018
2.31,-0.0183039269433312
2.315,-0.0183851336846944
2.32,-0.01846698922284
2.325,-0.0185494978788245
2.33,-0.0186326639885311
2.335,-0.0187164919030121
2.34,-0.0188009859888137
2.345,-0.0188861506283336
2.35,-0.0189719902201423
2.355,-0.0190585091793412
2.36,-0.0191457119378998
2.365,-0.0192336029450151
2.37,-0.0193221866674522
2.375,-0.019411467589905
2.38,-0.0195014502153562
2.385,-0.019592139065429
2.39,-0.0196835386807612
2.395,-0.0197756536213599
2.4,-0.0198684884669822
2.405,-0.0199620478174964
2.41,-0.0200563362932593
2.415,-0.020151358535502
2.42,-0.0202471192066972
2.425,-0.0203436229909576
2.43,-0.0204408745944099
2.435,-0.0205388787455937
2.44,-0.0206376401958511
2.445,-0.0207371637197224
2.45,-0.0208374541153518
2.455,-0.0209385162048807
2.46,-0.0210403548348629
2.465,-0.0211429748766738
2.47,-0.0212463812269123
2.475,-0.0213505788078398
2.48,-0.021455572567773
2.485,-0.0215613674815315
2.49,-0.0216679685508505
2.495,-0.0217753808048146
2.5,-0.0218836093002986
2.505,-0.0219926591223948
2.51,-0.0221025353848713
2.515,-0.0222132432305968
2.52,-0.0223247878320034
2.525,-0.0224371743915403
2.53,-0.0225504081421242
2.535,-0.0226644943476127
2.54,-0.0227794383032455
2.545,-0.0228952453361406
2.55,-0.0230119208057545
2.555,-0.0231294701043517
2.56,-0.0232478986575092
2.565,-0.0233672119245778
2.57,-0.0234874153991822
2.575,-0.0236085146097198
2.58,-0.023730515119846
2.585,-0.0238534225289894
2.59,-0.0239772424728636
2.595,-0.0241019806239517
2.6,-0.0242276426920524
2.605,-0.0243542344247838
2.61,-0.0244817616081164
2.615,-0.0246102300668976
2.62,-0.0247396456653905
2.625,-0.0248700143078049
2.63,-0.0250013419388536
2.635,-0.0251336345442961
2.64,-0.0252668981514877
2.645,-0.0254011388299449
2.65,-0.0255363626918964
2.655,-0.0256725758928801
2.66,-0.0258097846322798
2.665,-0.0259479951539295
2.67,-0.0260872137466982
2.675,-0.0262274467450585
2.68,-0.0263687005296968
2.685,-0.0265109815281157
2.69,-0.0266542962152362
2.695,-0.0267986511139983
2.7,-0.0269440527959882
2.705,-0.0270905078820592
2.71,-0.0272380230429595
2.715,-0.0273866049999552
2.72,-0.0275362605254869
2.725,-0.0276869964437959
2.73,-0.0278388196315905
2.735,-0.0279917370186898
2.74,-0.0281457555886967
2.745,-0.0283008823796559
2.75,-0.0284571244847398
2.755,-0.0286144890529168
2.76,-0.028772983289647
2.765,-0.0289326144575727
2.77,-0.0290933898772175
2.775,-0.0292553169276903
2.78,-0.0294184030474029
2.785,-0.0295826557347837
2.79,-0.0297480825490022
2.795,-0.029914691110705
2.8,-0.0300824891027595
2.805,-0.0302514842709825
2.81,-0.0304216844249058
2.815,-0.0305930974385366
2.82,-0.0307657312511166
2.825,-0.0309395938678976
2.83,-0.0311146933609252
2.835,-0.0312910378698196
2.84,-0.031468635602583
2.845,-0.0316474948363839
2.85,-0.0318276239183774
2.855,-0.0320090312665314
2.86,-0.0321917253704261
2.865,-0.0323757147921142
2.87,-0.0325610081669385
2.875,-0.0327476142043948
2.88,-0.0329355416889815
2.885,-0.0331247994810579
2.89,-0.0333153965177278
2.895,-0.033507341813711
2.9,-0.0337006444622275
2.905,-0.0338953136359072
2.91,-0.034091358587676
2.915,-0.0342887886516936
2.92,-0.034487613244243
2.925,-0.0346878418646888
2.93,-0.0348894840963986
2.935,-0.0350925496077005
2.94,-0.0352970481528294
2.945,-0.035502989572902
2.95,-0.035710383796885
2.955,-0.0359192408425799
2.96,-0.0361295708176186
2.965,-0.0363413839204536
2.97,-0.0365546904413903
2.975,-0.0367695007635778
2.98,-0.0369858253640745
2.985,-0.0372036748148548
2.99,-0.0374230597838828
2.995,-0.0376439910361588
3,-0.0378664794347893
