"Freq [GHz]","dB(S(ground_T1,ground_T1)) []"
2,-0.0202480226736636
2.005,-0.0203841361388649
2.01,-0.02052222241256
2.015,-0.0206622838846109
2.02,-0.0208043235978798
2.025,-0.0209483452824537
2.03,-0.0210943533932612
2.035,-0.0212423531514572
2.04,-0.0213923505899593
2.045,-0.0215443526036697
2.05,-0.0216983670049095
2.055,-0.0218544025846523
2.06,-0.0220124691802934
2.065,-0.0221725777507591
2.07,-0.0223347404598201
2.075,-0.0224989707687281
2.08,-0.0226652835392824
2.085,-0.0228336951487814
2.09,-0.0230042236183671
2.095,-0.0231768887566377
2.1,-0.0233517123205977
2.105,-0.0235287181963828
2.11,-0.0237079326026034
2.115,-0.0238893843195823
2.12,-0.0240731049483343
2.125,-0.0242591292037848
2.13,-0.0244474952474667
2.135,-0.0246382450659482
2.14,-0.0248314249022836
2.145,-0.0250270857491146
2.15,-0.025225283913767
2.155,-0.0254260816675534
2.16,-0.0256295479939032
2.165,-0.0258357594529067
2.17,-0.026044801183387
2.175,-0.0262567680680109
2.18,-0.0264717660923936
2.185,-0.0266899139359219
2.19,-0.0269113448403547
2.195,-0.0271362088128059
2.2,-0.0273646752330061
2.205,-0.0275969359513439
2.21,-0.0278332089855885
2.215,-0.0280737429512671
2.22,-0.0283188223956468
2.225,-0.0285687742503829
2.23,-0.0288239756765505
2.235,-0.0290848636525596
2.24,-0.0293519467564485
2.245,-0.0296258197279907
2.25,-0.0299071815745745
2.255,-0.0301968582247193
2.26,-0.0304958310573892
2.265,-0.0308052730768498
2.27,-0.0311265951081031
2.275,-0.0314615052227385
2.28,-0.0318120857634934
2.285,-0.0321808939504706
2.29,-0.0325710943104149
2.295,-0.0329866343299575
2.3,-0.0334324791373627
2.305,-0.0339149270841448
2.31,-0.0344420362475463
2.315,-0.0350242022551975
2.32,-0.0356749395369852
2.325,-0.0364119271064081
2.33,-0.0372583738885203
2.335,-0.0382447039855902
2.34,-0.0394103747946766
2.345,-0.0408051207778742
2.35,-0.0424876293048524
2.355,-0.0445168179238673
2.36,-0.0469257321013436
2.365,-0.0496627405161164
2.37,-0.0524936716675905
2.375,-0.054918231746214
2.38,-0.0562657444340992
2.385,-0.0560874819644313
2.39,-0.0545347802653524
2.395,-0.0522358196751312
2.4,-0.0498335504415615
2.405,-0.0477089773879449
2.41,-0.0459930510164654
2.415,-0.0446777908738068
2.42,-0.0437030508901914
2.425,-0.0430003096941762
2.43,-0.0425091897107052
2.435,-0.0421813404967997
2.44,-0.0419796014353684
2.445,-0.0418758847945338
2.45,-0.0418490537675643
2.455,-0.041883168446328
2.46,-0.0419661401470861
2.465,-0.0420887322456655
2.47,-0.0422438282992928
2.475,-0.0424258979258024
2.48,-0.0426306063190611
2.485,-0.04285452738853
2.49,-0.0430949316327397
2.495,-0.0433496280922912
2.5,-0.0436168456523256
2.505,-0.0438951431698254
2.51,-0.0441833408730063
2.515,-0.0444804675805788
2.52,-0.0447857197783808
2.525,-0.0450984296525519
2.53,-0.0454180399397676
2.535,-0.0457440840047368
2.54,-0.0460761699547459
2.545,-0.0464139678936974
2.55,-0.0467571996339623
2.555,-0.0471056303446717
2.56,-0.0474590617351321
2.565,-0.0478173264623072
2.57,-0.0481802835199223
2.575,-0.0485478144189838
2.58,-0.0489198200096698
2.585,-0.0492962178256317
2.59,-0.0496769398557255
2.595,-0.0500619306672016
2.6,-0.0504511458190132
2.605,-0.0508445505157236
2.61,-0.0512421184616793
2.615,-0.0516438308825571
2.62,-0.0520496756873414
2.625,-0.052459646748461
2.63,-0.0528737432818231
2.635,-0.0532919693114623
2.64,-0.0537143332061752
2.645,-0.0541408472775206
2.65,-0.0545715274303767
2.655,-0.0550063928585524
2.66,-0.0554454657791735
2.665,-0.0558887712005257
2.67,-0.0563363367188821
2.675,-0.0567881923403825
2.68,-0.0572443703247999
2.685,-0.0577049050483066
2.69,-0.0581698328828864
2.695,-0.0586391920902877
2.7,-0.0591130227288019
2.705,-0.0595913665712471
2.71,-0.0600742670329078
2.715,-0.0605617691082084
2.72,-0.061053919315164
2.725,-0.061550765646725
2.73,-0.0620523575282325
2.735,-0.0625587457803451
2.74,-0.0630699825868299
2.745,-0.0635861214667281
2.75,-0.0641072172504308
2.755,-0.0646333260592557
2.76,-0.065164505288212
2.765,-0.0657008135916153
2.77,-0.0662423108712673
2.775,-0.0667890582670073
2.78,-0.067341118149369
2.785,-0.0678985541141795
2.79,-0.0684614309789248
2.795,-0.069029814780726
2.8,-0.0696037727757989
2.805,-0.0701833734402733
2.81,-0.0707686864722553
2.815,-0.071359782795049
2.82,-0.0719567345614622
2.825,-0.0725596151590639
2.83,-0.0731684992164066
2.835,-0.0737834626100845
2.84,-0.0744045824725889
2.845,-0.0750319372009394
2.85,-0.0756656064659944
2.855,-0.0763056712224531
2.86,-0.0769522137194555
2.865,-0.0776053175118147
2.87,-0.0782650674717876
2.875,-0.0789315498013878
2.88,-0.0796048520452194
2.885,-0.0802850631038007
2.89,-0.0809722732473457
2.895,-0.0816665741300247
2.9,-0.0823680588046265
2.905,-0.0830768217376751
2.91,-0.0837929588249419
2.915,-0.0845165674073267
2.92,-0.0852477462871895
2.925,-0.0859865957449769
2.93,-0.0867332175562727
2.935,-0.0874877150091875
2.94,-0.0882501929220829
2.945,-0.0890207576616644
2.95,-0.0897995171613926
2.955,-0.0905865809402401
2.96,-0.091382060121756
2.965,-0.0921860674534717
2.97,-0.0929987173266142
2.975,-0.093820125796126
2.98,-0.0946504106010253
2.985,-0.0954896911850286
2.99,-0.0963380887175191
2.995,-0.0971957261147906
3,-0.0980627280616034
