"Freq [GHz]","dB(S(ground_T1,ground_T1)) []"
2,-0.0151419009956792
2.005,-0.0152299328042693
2.01,-0.0153182512819066
2.015,-0.015406881751694
2.02,-0.01549584936974
2.025,-0.0155851791277061
2.03,-0.0156748958553741
2.035,-0.0157650242232019
2.04,-0.0158555887448703
2.045,-0.01594661377985
2.05,-0.0160381235359757
2.055,-0.0161301420720125
2.06,-0.016222693300233
2.065,-0.016315800989027
2.07,-0.0164094887654957
2.075,-0.0165037801180726
2.08,-0.0165986983991719
2.085,-0.0166942668278318
2.09,-0.0167905084923995
2.095,-0.016887446353227
2.1,-0.0169851032454002
2.105,-0.0170835018814734
2.11,-0.0171826648542748
2.115,-0.0172826146396932
2.12,-0.0173833735995412
2.125,-0.0174849639844221
2.13,-0.0175874079366475
2.135,-0.0176907274932179
2.14,-0.017794944588793
2.145,-0.0179000810587687
2.15,-0.0180061586423552
2.155,-0.0181131989857308
2.16,-0.0182212236452454
2.165,-0.0183302540906781
2.17,-0.0184403117085547
2.175,-0.0185514178055226
2.18,-0.018663593611807
2.185,-0.0187768602847193
2.19,-0.0188912389122449
2.195,-0.0190067505167061
2.2,-0.0191234160585072
2.205,-0.0192412564399577
2.21,-0.0193602925091753
2.215,-0.0194805450640859
2.22,-0.0196020348565384
2.225,-0.0197247825964597
2.23,-0.0198488089561795
2.235,-0.0199741345748033
2.24,-0.0201007800627411
2.245,-0.0202287660063207
2.25,-0.0203581129725293
2.255,-0.020488841513886
2.26,-0.0206209721734249
2.265,-0.0207545254898379
2.27,-0.0208895220027343
2.275,-0.021025982258053
2.28,-0.0211639268136299
2.285,-0.0213033762449089
2.29,-0.0214443511508252
2.295,-0.0215868721598543
2.3,-0.0217309599362252
2.305,-0.0218766351863244
2.31,-0.0220239186652869
2.315,-0.0221728311837798
2.32,-0.0223233936149734
2.325,-0.022475626901741
2.33,-0.0226295520640648
2.335,-0.0227851902066677
2.34,-0.0229425625268664
2.345,-0.0231016903226923
2.35,-0.0232625950012279
2.355,-0.0234252980872213
2.36,-0.0235898212319682
2.365,-0.0237561862224609
2.37,-0.0239244149908267
2.375,-0.0240945296240805
2.38,-0.0242665523741528
2.385,-0.0244405056682693
2.39,-0.0246164121196385
2.395,-0.0247942945384868
2.4,-0.0249741759434646
2.405,-0.0251560795733825
2.41,-0.0253400288993685
2.415,-0.0255260476373872
2.42,-0.0257141597611937
2.425,-0.0259043895156789
2.43,-0.0260967614306786
2.435,-0.0262913003352188
2.44,-0.026488031372241
2.445,-0.0266869800138103
2.45,-0.0268881720768186
2.455,-0.0270916337392153
2.46,-0.0272973915567806
2.465,-0.0275054724804589
2.47,-0.0277159038742527
2.475,-0.0279287135337453
2.48,-0.0281439297052231
2.485,-0.0283615811054531
2.49,-0.0285816969421152
2.495,-0.0288043069349519
2.5,-0.0290294413375893
2.505,-0.0292571309601584
2.51,-0.0294874071926248
2.515,-0.0297203020289633
2.52,-0.0299558480921372
2.525,-0.0301940786599269
2.53,-0.0304350276916653
2.535,-0.0306787298558711
2.54,-0.0309252205588605
2.545,-0.03117453597432
2.55,-0.0314267130739265
2.555,-0.0316817896590087
2.56,-0.0319398043933393
2.565,-0.0322007968370328
2.57,-0.0324648074816558
2.575,-0.0327318777865623
2.58,-0.0330020502164875
2.585,-0.0332753682804786
2.59,-0.0335518765722023
2.595,-0.0338316208116397
2.6,-0.034114647888317
2.605,-0.0344010059060079
2.61,-0.034690744229066
2.615,-0.0349839135303915
2.62,-0.035280565841104
2.625,-0.035580754602017
2.63,-0.0358845347169293
2.635,-0.0361919626078532
2.64,-0.0365030962722265
2.645,-0.0368179953421787
2.65,-0.0371367211459684
2.655,-0.0374593367716257
2.66,-0.0377859071329215
2.665,-0.0381164990377411
2.67,-0.0384511812589472
2.675,-0.038790024607869
2.68,-0.039133102010442
2.685,-0.0394804885862016
2.69,-0.0398322617301514
2.695,-0.0401885011977038
2.7,-0.0405492891927245
2.705,-0.0409147104588912
2.71,-0.0412848523744458
2.715,-0.0416598050504863
2.72,-0.0420396614329503
2.725,-0.0424245174084298
2.73,-0.0428144719139824
2.735,-0.0432096270510773
2.74,-0.0436100882038905
2.745,-0.0440159641620599
2.75,-0.0444273672481491
2.755,-0.0448444134499737
2.76,-0.045267222557995
2.765,-0.0456959183080164
2.77,-0.0461306285293576
2.775,-0.0465714852987736
2.78,-0.0470186251003481
2.785,-0.0474721889915981
2.79,-0.047932322776064
2.795,-0.0483991771826632
2.8,-0.0488729080520703
2.805,-0.049353676530452
2.81,-0.049841649270848
2.815,-0.0503369986425459
2.82,-0.050839902948752
2.825,-0.0513505466529827
2.83,-0.0518691206144758
2.835,-0.0523958223330908
2.84,-0.0529308562040296
2.845,-0.05347443378289
2.85,-0.0540267740614334
2.855,-0.0545881037545985
2.86,-0.0551586575991967
2.865,-0.0557386786648738
2.87,-0.0563284186778127
2.875,-0.0569281383578274
2.88,-0.0575381077693609
2.885,-0.0581586066870846
2.89,-0.0587899249767286
2.895,-0.0594323629918233
2.9,-0.0600862319870955
2.905,-0.0607518545492856
2.91,-0.0614295650461527
2.915,-0.0621197100945513
2.92,-0.062822649048402
2.925,-0.0635387545075502
2.93,-0.0642684128484266
2.935,-0.0650120247775534
2.94,-0.0657700059089818
2.945,-0.0665427873667567
2.95,-0.0673308164136173
2.955,-0.0681345571071832
2.96,-0.0689544909849163
2.965,-0.0697911177792411
2.97,-0.0706449561643126
2.975,-0.0715165445358844
2.98,-0.072406441825956
2.985,-0.0733152283538531
2.99,-0.074243506715514
2.995,-0.0751919027128942
3,-0.0761610663254242
