"Freq [GHz]","dB(S(ground_T1,ground_T1)) []"
2,-0.0469315946091359
2.005,-0.04645496026246
2.01,-0.0459964207132734
2.015,-0.0455559759001764
2.02,-0.0451336449548056
2.025,-0.0447294679722666
2.03,-0.0443435079338968
2.035,-0.0439758527876913
2.04,-0.0436266176895022
2.045,-0.0432959474051562
2.05,-0.0429840188695679
2.055,-0.0426910438935527
2.06,-0.0424172720022436
2.065,-0.0421629933800673
2.07,-0.0419285418864533
2.075,-0.041714298092658
2.08,-0.0415206922736671
2.085,-0.0413482072691591
2.09,-0.0411973811039326
2.095,-0.04106880923077
2.1,-0.0409631462272937
2.105,-0.0408811067432656
2.11,-0.0408234654565677
2.115,-0.0407910557559927
2.12,-0.0407847668287557
2.125,-0.0408055387931019
2.13,-0.0408543554855575
2.135,-0.0409322344931063
2.14,-0.0410402140196293
2.145,-0.0411793362009764
2.15,-0.0413506265426734
2.155,-0.041555069258061
2.16,-0.0417935784411859
2.165,-0.042066965224543
2.17,-0.0423759013503057
2.175,-0.0427208799213008
2.18,-0.0431021744834124
2.185,-0.0435197980019601
2.19,-0.0439734636970066
2.195,-0.0444625500510834
2.2,-0.0449860725430854
2.205,-0.045542664737068
2.21,-0.0461305712115382
2.215,-0.0467476544166982
2.22,-0.0473914168830562
2.225,-0.0480590392987189
2.23,-0.0487474338878225
2.235,-0.0494533113589292
2.24,-0.0501732585755102
2.245,-0.0509038231653706
2.25,-0.0516416006528293
2.255,-0.0523833194526213
2.26,-0.053125919242795
2.265,-0.0538666188121644
2.27,-0.0546029703795307
2.275,-0.0553328984905606
2.28,-0.0560547227794151
2.285,-0.0567671650044515
2.29,-0.057469341723262
2.295,-0.0581607446891549
2.3,-0.0588412114968683
2.305,-0.0595108891851548
2.31,-0.0601701934514707
2.315,-0.0608197659019106
2.32,-0.0614604314065362
2.325,-0.0620931572142061
2.33,-0.0627190150503873
2.335,-0.0633391470142032
2.34,-0.063954735731596
2.345,-0.0645669789240668
2.35,-0.0651770683208671
2.355,-0.0657861726745225
2.36,-0.0663954245280983
2.365,-0.0670059103187118
2.37,-0.067618663375417
2.375,-0.0682346593712055
2.38,-0.0688548138104899
2.385,-0.069479981167202
2.39,-0.0701109553300268
2.395,-0.0707484710549438
2.4,-0.0713932061691167
2.405,-0.0720457843115388
2.41,-0.0727067780339154
2.415,-0.0733767121189614
2.42,-0.0740560670030246
2.425,-0.0747452822149298
2.43,-0.0754447597642999
2.435,-0.0761548674301144
2.44,-0.0768759419145562
2.445,-0.0776082918386882
2.45,-0.0783522005656925
2.455,-0.0791079288443801
2.46,-0.0798757172712101
2.465,-0.0806557885730515
2.47,-0.081448349715916
2.475,-0.0822535938469956
2.48,-0.0830717020786172
2.485,-0.0839028451237197
2.49,-0.0847471847927258
2.495,-0.0856048753619435
2.5,-0.0864760648233589
2.505,-0.0873608960255226
2.51,-0.0882595077147439
2.515,-0.0891720354853603
2.52,-0.0900986126473147
2.525,-0.0910393710187372
2.53,-0.0919944416506311
2.535,-0.0929639554903158
2.54,-0.0939480439896217
2.545,-0.0949468396634373
2.55,-0.0959604766037186
2.555,-0.0969890909535131
2.56,-0.0980328213453366
2.565,-0.0990918093076592
2.57,-0.100166199643042
2.575,-0.101256140781048
2.58,-0.102361785108844
2.585,-0.103483289282042
2.59,-0.104620814518158
2.595,-0.105774526874851
2.6,-0.106944597514782
2.605,-0.108131202958934
2.61,-0.109334525329913
2.615,-0.11055475258669
2.62,-0.11179207875207
2.625,-0.113046704134059
2.63,-0.114318835542238
2.635,-0.115608686500061
2.64,-0.116916477453992
2.645,-0.1182424359803
2.65,-0.119586796990225
2.655,-0.12094980293419
2.66,-0.122331704005704
2.665,-0.12373275834549
2.67,-0.12515323224638
2.675,-0.126593400359446
2.68,-0.12805354590185
2.685,-0.129533960866774
2.69,-0.131034946235851
2.695,-0.132556812194453
2.7,-0.134099878350179
2.705,-0.135664473954848
2.71,-0.137250938130311
2.715,-0.138859620098364
2.72,-0.140490879415032
2.725,-0.142145086209486
2.73,-0.143822621427861
2.735,-0.145523877082154
2.74,-0.147249256504541
2.745,-0.148999174607219
2.75,-0.150774058148081
2.755,-0.152574346002403
2.76,-0.154400489440745
2.765,-0.156252952413303
2.77,-0.158132211840877
2.775,-0.160038757912691
2.78,-0.161973094391242
2.785,-0.163935738924375
2.79,-0.165927223364804
2.795,-0.16794809409724
2.8,-0.169998912373338
2.805,-0.172080254654663
2.81,-0.17419271296386
2.815,-0.176336895244212
2.82,-0.178513425727807
2.825,-0.180722945312471
2.83,-0.182966111947707
2.835,-0.185243601029781
2.84,-0.187556105806194
2.845,-0.189904337789723
2.85,-0.192289027182193
2.855,-0.194710923308239
2.86,-0.197170795059184
2.865,-0.199669431347291
2.87,-0.202207641570523
2.875,-0.204786256088061
2.88,-0.207406126706721
2.885,-0.210068127178516
2.89,-0.212773153709502
2.895,-0.215522125480119
2.9,-0.21831598517725
2.905,-0.221155699538097
2.91,-0.224042259906133
2.915,-0.22697668279929
2.92,-0.229960010490517
2.925,-0.23299331160094
2.93,-0.23607768170573
2.935,-0.239214243952885
2.94,-0.242404149695037
2.945,-0.245648579134471
2.95,-0.248948741981453
2.955,-0.252305878126025
2.96,-0.25572125832337
2.965,-0.259196184892847
2.97,-0.262731992430833
2.975,-0.266330048537385
2.98,-0.269991754556866
2.985,-0.273718546332511
2.99,-0.277511894975054
2.995,-0.281373307645356
3,-0.285304328351078
