"Freq [GHz]","dB(S(ground_T1,ground_T1)) []"
2,-0.0148975947007764
2.005,-0.0149809274873261
2.01,-0.0150653861855527
2.015,-0.0151509859893663
2.02,-0.0152377424693177
2.025,-0.015325671583225
2.03,-0.0154147896871938
2.035,-0.0155051135470324
2.04,-0.0155966603500821
2.045,-0.0156894477174972
2.05,-0.0157834937169777
2.055,-0.0158788168759542
2.06,-0.0159754361953008
2.065,-0.0160733711635388
2.07,-0.0161726417715861
2.075,-0.0162732685280602
2.08,-0.016375272475181
2.085,-0.0164786752052501
2.09,-0.016583498877813
2.095,-0.0166897662374328
2.1,-0.0167975006321953
2.105,-0.0169067260329262
2.11,-0.0170174670531488
2.115,-0.0171297489698518
2.12,-0.0172435977450848
2.125,-0.0173590400483672
2.13,-0.0174761032800817
2.135,-0.0175948155957283
2.14,-0.0177152059312234
2.145,-0.017837304029191
2.15,-0.0179611404663675
2.155,-0.0180867466820991
2.16,-0.0182141550080642
2.165,-0.0183433986991984
2.17,-0.0184745119659553
2.175,-0.0186075300078828
2.18,-0.0187424890486806
2.185,-0.0188794263727093
2.19,-0.0190183803630902
2.195,-0.0191593905414566
2.2,-0.0193024976094161
2.205,-0.0194477434918454
2.21,-0.0195951713820788
2.215,-0.0197448257891014
2.22,-0.0198967525868552
2.225,-0.0200509990657383
2.23,-0.0202076139864399
2.235,-0.0203666476362158
2.24,-0.0205281518877465
2.245,-0.0206921802606748
2.25,-0.0208587879860214
2.255,-0.021028032073587
2.26,-0.0211999713825157
2.265,-0.0213746666951763
2.27,-0.0215521807945884
2.275,-0.0217325785455049
2.28,-0.02191592697944
2.285,-0.0221022953837799
2.29,-0.0222917553952741
2.295,-0.0224843810981032
2.3,-0.022680249126791
2.305,-0.0228794387742605
2.31,-0.0230820321052982
2.315,-0.0232881140757424
2.32,-0.0234977726577555
2.325,-0.0237110989714862
2.33,-0.0239281874235466
2.335,-0.0241491358526717
2.34,-0.024374045683017
2.345,-0.0246030220855207
2.35,-0.0248361741478616
2.355,-0.0250736150534778
2.36,-0.0253154622702803
2.365,-0.0255618377495809
2.37,-0.0258128681359263
2.375,-0.0260686849885092
2.38,-0.0263294250148769
2.385,-0.0265952303177276
2.39,-0.0268662486556531
2.395,-0.0271426337187224
2.4,-0.0274245454198428
2.405,-0.0277121502029965
2.41,-0.0280056213694349
2.415,-0.0283051394230366
2.42,-0.0286108924361224
2.425,-0.0289230764371475
2.43,-0.0292418958217179
2.435,-0.0295675637885888
2.44,-0.0299003028023898
2.445,-0.030240345084911
2.45,-0.0305879331370418
2.455,-0.0309433202934996
2.46,-0.0313067713127613
2.465,-0.0316785630047495
2.47,-0.0320589848990022
2.475,-0.0324483399564457
2.48,-0.0328469453278963
2.485,-0.0332551331629337
2.49,-0.0336732514729206
2.495,-0.0341016650523722
2.5,-0.0345407564631931
2.505,-0.0349909270867343
2.51,-0.035452598249012
2.515,-0.0359262124249746
2.52,-0.0364122345281804
2.525,-0.0369111532928656
2.53,-0.0374234827560232
2.535,-0.0379497638477955
2.54,-0.0384905660993035
2.545,-0.0390464894779211
2.55,-0.0396181663608627
2.555,-0.0402062636591712
2.56,-0.04081148510524
2.565,-0.041434573718382
2.57,-0.0420763144644154
2.575,-0.0427375371268048
2.58,-0.0434191194088141
2.585,-0.0441219902879768
2.59,-0.0448471336466247
2.595,-0.0455955922045688
2.6,-0.0463684717829697
2.605,-0.0471669459314759
2.61,-0.047992260954345
2.615,-0.0488457413752045
2.62,-0.0497287958845279
2.625,-0.0506429238190584
2.63,-0.0515897222279885
2.635,-0.0525708935871993
2.64,-0.0535882542301245
2.645,-0.0546437435719979
2.65,-0.0557394342136757
2.655,-0.0568775430217797
2.66,-0.0580604432940687
2.665,-0.0592906781327144
2.67,-0.0605709751639491
2.675,-0.0619042627606212
2.68,-0.0632936879448434
2.685,-0.0647426361717329
2.69,-0.0662547532225925
2.695,-0.0678339694674216
2.7,-0.069484526793077
2.705,-0.071211008535618
2.71,-0.0730183728043284
2.715,-0.0749119896417849
2.72,-0.0768976825306999
2.725,-0.078981774835722
2.73,-0.0811711418590353
2.735,-0.0834732692950841
2.74,-0.0858963189949144
2.745,-0.0884492030983544
2.75,-0.0911416677669774
2.755,-0.0939843879579171
2.76,-0.0969890749251548
2.765,-0.100168598428752
2.77,-0.103537125984286
2.775,-0.107110281906914
2.78,-0.110905329412886
2.785,-0.114941379655407
2.79,-0.1192396323165
2.795,-0.123823653282517
2.8,-0.128719696037431
2.805,-0.133957074764741
2.81,-0.139568598818497
2.815,-0.145591080288016
2.82,-0.152065928942819
2.825,-0.159039852038825
2.83,-0.166565680468578
2.835,-0.174703347775302
2.84,-0.18352105492247
2.845,-0.193096661813382
2.85,-0.203519356914599
2.855,-0.214891669656651
2.86,-0.227331907510921
2.865,-0.240977122055043
2.87,-0.255986737687643
2.875,-0.272547015336732
2.88,-0.290876574843311
2.885,-0.311233268317941
2.89,-0.333922789156869
2.895,-0.359309526754728
2.9,-0.387830348369715
2.905,-0.420012225926878
2.91,-0.456494954093713
2.915,-0.498060666615301
2.92,-0.545672509353807
2.925,-0.600525757740939
2.93,-0.664116003172482
2.935,-0.738330971705266
2.94,-0.825575371508757
2.945,-0.928942331949233
2.95,-1.0524511530475
2.955,-1.20138019638074
2.96,-1.38273720248251
2.965,-1.60592898696284
2.97,-1.88372055820177
2.975,-2.2336118549601
2.98,-2.67980621410803
2.985,-3.25598026811048
2.99,-4.00901207497141
2.995,-5.00335585125798
3,-6.32337772118825
