"Freq [GHz]","dB(S(ground_T1,ground_T1)) []"
2,-0.0157547756742989
2.005,-0.0158586600051462
2.01,-0.0159637845234496
2.015,-0.0160701647591523
2.02,-0.0161778165599816
2.025,-0.0162867560988852
2.03,-0.0163969998816781
2.035,-0.0165085647549404
2.04,-0.0166214679141265
2.045,-0.0167357269119385
2.05,-0.0168513596669542
2.055,-0.0169683844725126
2.06,-0.0170868200058618
2.065,-0.0172066853376149
2.07,-0.0173279999414691
2.075,-0.0174507837042444
2.08,-0.0175750569362185
2.085,-0.0177008403818088
2.09,-0.0178281552305545
2.095,-0.0179570231284745
2.1,-0.0180874661897643
2.105,-0.0182195070088744
2.11,-0.0183531686729667
2.115,-0.0184884747747662
2.12,-0.0186254494258388
2.125,-0.0187641172702715
2.13,-0.0189045034988257
2.135,-0.0190466338635163
2.14,-0.0191905346926981
2.145,-0.0193362329066226
2.15,-0.0194837560335157
2.155,-0.0196331322261859
2.16,-0.01978439027918
2.165,-0.0199375596465139
2.17,-0.0200926704599937
2.175,-0.0202497535481593
2.18,-0.0204088404558436
2.185,-0.0205699634644343
2.19,-0.0207331556127898
2.195,-0.0208984507188926
2.2,-0.021065883402228
2.205,-0.0212354891069588
2.21,-0.0214073041258847
2.215,-0.0215813656252442
2.22,-0.0217577116703917
2.225,-0.0219363812523524
2.23,-0.022117414315361
2.235,-0.0223008517853289
2.24,-0.0224867355993658
2.245,-0.0226751087363384
2.25,-0.0228660152485427
2.255,-0.0230595002945157
2.26,-0.0232556101730432
2.265,-0.0234543923584272
2.27,-0.023655895537011
2.275,-0.0238601696451152
2.28,-0.0240672659083189
2.285,-0.0242772368822507
2.29,-0.0244901364948947
2.295,-0.024706020090497
2.3,-0.0249249444751336
2.305,-0.0251469679640177
2.31,-0.0253721504306247
2.315,-0.0256005533576952
2.32,-0.0258322398902353
2.325,-0.0260672748905588
2.33,-0.0263057249955038
2.335,-0.0265476586758915
2.34,-0.0267931462983278
2.345,-0.0270422601894936
2.35,-0.0272950747029829
2.355,-0.0275516662888332
2.36,-0.0278121135658804
2.365,-0.0280764973970523
2.37,-0.0283449009677432
2.375,-0.0286174098674011
2.38,-0.0288941121745259
2.385,-0.0291750985451635
2.39,-0.0294604623051394
2.395,-0.0297502995461559
2.4,-0.0300447092259647
2.405,-0.0303437932728115
2.41,-0.0306476566943601
2.415,-0.0309564076912951
2.42,-0.0312701577758691
2.425,-0.0315890218956306
2.43,-0.0319131185625416
2.435,-0.0322425699878541
2.44,-0.0325775022229321
2.445,-0.0329180453064026
2.45,-0.0332643334179104
2.455,-0.0336165050388373
2.46,-0.0339747031203365
2.465,-0.034339075259092
2.47,-0.0347097738811564
2.475,-0.0350869564343465
2.48,-0.0354707855896208
2.485,-0.0358614294519442
2.49,-0.0362590617810937
2.495,-0.0366638622230418
2.5,-0.0370760165524052
2.505,-0.037495716926597
2.51,-0.0379231621523574
2.515,-0.0383585579653143
2.52,-0.0388021173233189
2.525,-0.0392540607143337
2.53,-0.0397146164797076
2.535,-0.0401840211537089
2.54,-0.0406625198202506
2.545,-0.0411503664878181
2.55,-0.041647824483649
2.555,-0.0421551668683278
2.56,-0.0426726768719478
2.565,-0.0432006483531991
2.57,-0.0437393862827168
2.575,-0.0442892072521525
2.58,-0.0448504400106024
2.585,-0.0454234260299632
2.59,-0.046008520101151
2.595,-0.0466060909629698
2.6,-0.0472165219657883
2.605,-0.0478402117721706
2.61,-0.0484775750968499
2.615,-0.0491290434885698
2.62,-0.0497950661565097
2.625,-0.050476110844206
2.63,-0.051172664754111
2.635,-0.0518852355261393
2.64,-0.0526143522738473
2.645,-0.0533605666820784
2.65,-0.054124454170341
2.655,-0.0549066151263601
2.66,-0.0557076762146982
2.665,-0.0565282917656859
2.67,-0.0573691452502866
2.675,-0.0582309508470502
2.68,-0.0591144551076885
2.685,-0.0600204387284567
2.69,-0.0609497184350059
2.695,-0.0619031489890819
2.7,-0.0628816253260996
2.705,-0.0638860848333779
2.71,-0.0649175097796899
2.715,-0.0659769299076271
2.72,-0.0670654252013481
2.725,-0.0681841288432843
2.73,-0.069334230374672
2.735,-0.0705169790759758
2.74,-0.0717336875848645
2.745,-0.0729857357707882
2.75,-0.0742745748871972
2.755,-0.0756017320241174
2.76,-0.0769688148861428
2.765,-0.0783775169231218
2.77,-0.0798296228434187
2.775,-0.0813270145425846
2.78,-0.0828716774833495
2.785,-0.084465707566421
2.79,-0.086111318535505
2.795,-0.0878108499642369
2.8,-0.0895667758775901
2.805,-0.0913817140657187
2.81,-0.0932584361541043
2.815,-0.0951998785006247
2.82,-0.0972091539976049
2.825,-0.0992895648652309
2.83,-0.101444616532086
2.835,-0.103678032708973
2.84,-0.105993771774034
2.845,-0.108396044600286
2.85,-0.110889333971613
2.855,-0.113478415749951
2.86,-0.116168381975367
2.865,-0.11896466610196
2.87,-0.121873070596779
2.875,-0.12489979715622
2.88,-0.128051479825531
2.885,-0.131335221342177
2.89,-0.134758633064195
2.895,-0.138329878890291
2.9,-0.142057723630872
2.905,-0.145951586348967
2.91,-0.150021599258578
2.915,-0.154278672846695
2.92,-0.158734567975737
2.925,-0.163401975827379
2.93,-0.168294606669119
2.935,-0.173427288564046
2.94,-0.178816077305497
2.945,-0.184478379045569
2.95,-0.19043308730407
2.955,-0.196700736298607
2.96,-0.20330367283301
2.965,-0.210266249328857
2.97,-0.217615040992506
2.975,-0.225379090589838
2.98,-0.233590184866637
2.985,-0.242283167321261
2.99,-0.251496292828883
2.995,-0.261271630558449
3,-0.271655522745423
