"Freq [GHz]","dB(S(ground_T1,ground_T1)) []"
2,-0.0138399115967089
2.005,-0.0138873134739957
2.01,-0.013935101764131
2.015,-0.0139832823027832
2.02,-0.0140318608882181
2.025,-0.0140808432819971
2.03,-0.0141302352096932
2.035,-0.0141800423615857
2.04,-0.0142302703933793
2.045,-0.0142809249268876
2.05,-0.0143320115507664
2.055,-0.0143835358211791
2.06,-0.0144355032625388
2.065,-0.0144879193681833
2.07,-0.014540789601094
2.075,-0.0145941193945879
2.08,-0.0146479141530205
2.085,-0.0147021792524963
2.09,-0.014756920041564
2.095,-0.0148121418419179
2.1,-0.0148678499491121
2.105,-0.0149240496332476
2.11,-0.0149807461396753
2.115,-0.0150379446897221
2.12,-0.0150956504813693
2.125,-0.0151538686899628
2.13,-0.0152126044689351
2.135,-0.0152718629504837
2.14,-0.0153316492462992
2.145,-0.0153919684482564
2.15,-0.0154528256291422
2.155,-0.0155142258433398
2.16,-0.0155761741275552
2.165,-0.0156386755015249
2.17,-0.0157017349687196
2.175,-0.0157653575170744
2.18,-0.0158295481196813
2.185,-0.0158943117355181
2.19,-0.0159596533101648
2.195,-0.0160255777765183
2.2,-0.0160920900555171
2.205,-0.0161591950568474
2.21,-0.0162268976796936
2.215,-0.0162952028134326
2.22,-0.0163641153383876
2.225,-0.0164336401265317
2.23,-0.0165037820422345
2.235,-0.0165745459429953
2.24,-0.0166459366801656
2.245,-0.0167179590996917
2.25,-0.0167906180428571
2.255,-0.016863918347019
2.26,-0.0169378648463482
2.265,-0.0170124623725832
2.27,-0.0170877157557725
2.275,-0.0171636298250296
2.28,-0.0172402094092802
2.285,-0.0173174593380203
2.29,-0.0173953844420809
2.295,-0.0174739895543802
2.3,-0.0175532795107009
2.305,-0.0176332591504396
2.31,-0.0177139333173958
2.315,-0.0177953068605353
2.32,-0.0178773846347704
2.325,-0.0179601715017397
2.33,-0.0180436723305889
2.335,-0.0181278919987689
2.34,-0.0182128353928089
2.345,-0.0182985074091283
2.35,-0.0183849129548225
2.355,-0.0184720569484745
2.36,-0.0185599443209478
2.365,-0.0186485800162109
2.37,-0.0187379689921408
2.375,-0.0188281162213429
2.38,-0.0189190266919774
2.385,-0.0190107054085765
2.39,-0.0191031573928872
2.395,-0.019196387684692
2.4,-0.0192904013426638
2.405,-0.0193852034451962
2.41,-0.0194807990912584
2.415,-0.0195771934012583
2.42,-0.0196743915178749
2.425,-0.0197723986069502
2.43,-0.0198712198583452
2.435,-0.0199708604868092
2.44,-0.0200713257328634
2.445,-0.0201726208636882
2.45,-0.0202747511740074
2.455,-0.0203777219869828
2.46,-0.0204815386551252
2.465,-0.0205862065611825
2.47,-0.0206917311190693
2.475,-0.0207981177747697
2.48,-0.0209053720072778
2.485,-0.0210134993295116
2.49,-0.0211225052892615
2.495,-0.0212323954701229
2.5,-0.0213431754924474
2.505,-0.0214548510143096
2.51,-0.0215674277324512
2.515,-0.0216809113832584
2.52,-0.0217953077437422
2.525,-0.0219106226325056
2.53,-0.0220268619107457
2.535,-0.0221440314832422
2.54,-0.0222621372993803
2.545,-0.0223811853541213
2.55,-0.0225011816890614
2.555,-0.0226221323934379
2.56,-0.0227440436051592
2.565,-0.0228669215118635
2.57,-0.0229907723519444
2.575,-0.0231156024156279
2.58,-0.0232414180460218
2.585,-0.0233682256402064
2.59,-0.0234960316502971
2.595,-0.0236248425845418
2.6,-0.0237546650084342
2.605,-0.0238855055457938
2.61,-0.0240173708799037
2.615,-0.0241502677546262
2.62,-0.0242842029755399
2.625,-0.0244191834110823
2.63,-0.0245552159936977
2.635,-0.0246923077210125
2.64,-0.0248304656569923
2.645,-0.0249696969331302
2.65,-0.0251100087496415
2.655,-0.0252514083766609
2.66,-0.0253939031554509
2.665,-0.0255375004996333
2.67,-0.0256822078964093
2.675,-0.0258280329078146
2.68,-0.0259749831719669
2.685,-0.0261230664043226
2.69,-0.0262722903989708
2.695,-0.0264226630299027
2.7,-0.0265741922523242
2.705,-0.026726886103947
2.71,-0.0268807527063255
2.715,-0.0270358002661859
2.72,-0.0271920370767672
2.725,-0.0273494715191779
2.73,-0.0275081120637728
2.735,-0.0276679672715223
2.74,-0.0278290457954182
2.745,-0.027991356381874
2.75,-0.0281549078721434
2.755,-0.0283197092037597
2.76,-0.0284857694119769
2.765,-0.028653097631225
2.77,-0.0288217030965963
2.775,-0.0289915951453192
2.78,-0.029162783218266
2.785,-0.0293352768614647
2.79,-0.0295090857276309
2.795,-0.0296842195777102
2.8,-0.0298606882824336
2.805,-0.0300385018239005
2.81,-0.0302176702971587
2.815,-0.0303982039118084
2.82,-0.0305801129936271
2.825,-0.0307634079862003
2.83,-0.0309480994525703
2.835,-0.0311341980769131
2.84,-0.0313217146662111
2.845,-0.0315106601519568
2.85,-0.0317010455918697
2.855,-0.0318928821716316
2.86,-0.0320861812066384
2.865,-0.0322809541437557
2.87,-0.0324772125631223
2.875,-0.0326749681799426
2.88,-0.0328742328463107
2.885,-0.0330750185530522
2.89,-0.0332773374315794
2.895,-0.0334812017557765
2.9,-0.0336866239438751
2.905,-0.0338936165603967
2.91,-0.0341021923180703
2.915,-0.0343123640797929
2.92,-0.0345241448605997
2.925,-0.0347375478296628
2.93,-0.0349525863123077
2.935,-0.0351692737920428
2.94,-0.0353876239126266
2.945,-0.0356076504801376
2.95,-0.0358293674650781
2.955,-0.0360527890044903
2.96,-0.0362779294041137
2.965,-0.0365048031405316
2.97,-0.0367334248633805
2.975,-0.0369638093975513
2.98,-0.037195971745418
2.985,-0.0374299270891115
2.99,-0.0376656907927901
2.995,-0.0379032784049589
3,-0.0381427056607792
