"Freq [GHz]","dB(S(ground_T1,ground_T1)) []"
2,-0.0167981975300717
2.005,-0.0169384104408557
2.01,-0.0170813605413508
2.015,-0.0172271019020547
2.02,-0.0173756905270385
2.025,-0.0175271844283414
2.03,-0.0176816437038793
2.035,-0.0178391306190633
2.04,-0.0179997096922989
2.045,-0.0181634477846
2.05,-0.0183304141935107
2.055,-0.0185006807516201
2.06,-0.01867432192987
2.065,-0.0188514149459569
2.07,-0.0190320398781131
2.075,-0.0192162797845334
2.08,-0.0194042208288251
2.085,-0.0195959524117802
2.09,-0.0197915673098358
2.095,-0.0199911618206609
2.1,-0.0201948359162049
2.105,-0.0204026934037224
2.11,-0.0206148420952019
2.115,-0.0208313939857116
2.12,-0.0210524654412052
2.125,-0.0212781773963603
2.13,-0.0215086555630434
2.135,-0.0217440306500812
2.14,-0.0219844385950269
2.145,-0.0222300208086581
2.15,-0.0224809244330425
2.155,-0.0227373026139898
2.16,-0.0229993147888311
2.165,-0.0232671269905294
2.17,-0.0235409121691418
2.175,-0.0238208505318022
2.18,-0.0241071299024388
2.185,-0.0243999461025288
2.19,-0.0246995033543055
2.195,-0.0250060147079598
2.2,-0.025319702494423
2.205,-0.0256407988055385
2.21,-0.025969546003503
2.215,-0.0263061972616012
2.22,-0.0266510171384963
2.225,-0.0270042821883939
2.23,-0.027366281609727
2.235,-0.0277373179350843
2.24,-0.0281177077654503
2.245,-0.0285077825519862
2.25,-0.0289078894288873
2.255,-0.029318392101204
2.26,-0.029739671791709
2.265,-0.0301721282513814
2.27,-0.0306161808384082
2.275,-0.0310722696710315
2.28,-0.0315408568600578
2.285,-0.0320224278273424
2.29,-0.0325174927171631
2.295,-0.0330265879080092
2.3,-0.0335502776329643
2.305,-0.0340891557176922
2.31,-0.0346438474458437
2.315,-0.0352150115625753
2.32,-0.0358033424280288
2.325,-0.0364095723335994
2.33,-0.0370344739952062
2.335,-0.03767886323914
2.34,-0.0383436018975272
2.345,-0.0390296009323574
2.35,-0.0397378238087454
2.355,-0.0404692901403718
2.36,-0.0412250796323902
2.365,-0.0420063363497222
2.37,-0.0428142733417069
2.375,-0.0436501776573643
2.38,-0.0445154157892576
2.385,-0.0454114395882087
2.39,-0.046339792695753
2.395,-0.0473021175465876
2.4,-0.0483001629992454
2.405,-0.0493357926599461
2.41,-0.0504109939722631
2.415,-0.0515278881538163
2.42,-0.0526887410710968
2.425,-0.0538959751545104
2.43,-0.0551521824685124
2.435,-0.0564601390660013
2.44,-0.057822820772631
2.445,-0.0592434205654661
2.45,-0.060725367731881
2.455,-0.062272349019266
2.46,-0.0638883320144871
2.465,-0.0655775910246002
2.47,-0.0673447357679412
2.475,-0.0691947432282522
2.48,-0.0711329930748212
2.485,-0.0731653071100983
2.49,-0.0752979932741548
2.495,-0.0775378948147553
2.5,-0.0798924453242726
2.505,-0.0823697304532447
2.51,-0.0849785572376814
2.515,-0.0877285321271182
2.52,-0.0906301489773728
2.525,-0.0936948884812154
2.53,-0.0969353307586033
2.535,-0.100365283123652
2.54,-0.103999925398254
2.545,-0.107855975564582
2.55,-0.111951879055636
2.555,-0.116308025594143
2.56,-0.120946998228291
2.565,-0.125893860108913
2.57,-0.131176485642968
2.575,-0.136825943991019
2.58,-0.142876944510864
2.585,-0.149368355762869
2.59,-0.156343812182259
2.595,-0.163852425616126
2.6,-0.171949622781151
2.605,-0.180698134533954
2.61,-0.190169168936881
2.615,-0.200443807811685
2.62,-0.211614676283583
2.625,-0.223787947368289
2.63,-0.237085759800817
2.635,-0.251649148199815
2.64,-0.267641611866713
2.645,-0.285253484166304
2.65,-0.30470731145318
2.655,-0.326264512950427
2.66,-0.350233676506629
2.665,-0.376980957700107
2.67,-0.406943202582034
2.675,-0.440644623529379
2.68,-0.478718146369615
2.685,-0.52193294877353
2.69,-0.571230274163037
2.695,-0.627770404863403
2.7,-0.692994821494705
2.705,-0.768709225886506
2.71,-0.857195509751921
2.715,-0.961364289989197
2.72,-1.08496488929422
2.725,-1.23287753173649
2.73,-1.4115244925859
2.735,-1.62945531929727
2.74,-1.89818989166301
2.745,-2.23344874082528
2.75,-2.65697528824097
2.755,-3.19928543671751
2.76,-3.90392538238982
2.765,-4.83432341805663
2.77,-6.08543651213786
2.775,-7.80473333853594
2.78,-10.228454565784
2.785,-13.6800568270231
2.79,-17.4696803194187
2.795,-16.1590336717476
2.8,-12.2016598674595
2.805,-9.22977277896235
2.81,-7.14944724043383
2.815,-5.65789920988103
2.82,-4.56084149475701
2.825,-3.7366172718796
2.83,-3.10605815337811
2.835,-2.61585593346221
2.84,-2.22917984015509
2.845,-1.92006623785075
2.85,-1.66990046399008
2.855,-1.46513474742805
2.86,-1.2957716996114
2.865,-1.1543377063511
2.87,-1.03517715525785
2.875,-0.93396052616504
2.88,-0.847337150584306
2.885,-0.772687123360086
2.89,-0.707942002571164
2.895,-0.651453787541151
2.9,-0.601898158663219
2.905,-0.558202293589588
2.91,-0.519490494973232
2.915,-0.485042855667203
2.92,-0.454263558232797
2.925,-0.426656359242248
2.93,-0.401805478702863
2.935,-0.379360589899496
2.94,-0.359024944839954
2.945,-0.340545915873598
2.95,-0.323707412732105
2.955,-0.308323765422815
2.96,-0.294234760481627
2.965,-0.281301590480591
2.97,-0.269403531060689
2.975,-0.258435200893813
2.98,-0.248304291305353
2.985,-0.238929676303288
2.99,-0.230239832283554
2.995,-0.222171511055881
3,-0.214668621053017
