"Freq [GHz]","dB(S(ground_T1,ground_T1)) []"
2,-0.0450078969593713
2.005,-0.0456421282962749
2.01,-0.0462835092078684
2.015,-0.0469321128778678
2.02,-0.0475880149556482
2.025,-0.0482512935927497
2.03,-0.0489220294804064
2.035,-0.0496003058880875
2.04,-0.0502862087031219
2.045,-0.0509798264713869
2.05,-0.0516812504391303
2.055,-0.0523905745959073
2.06,-0.0531078957187158
2.065,-0.0538333134173345
2.07,-0.0545669301808749
2.075,-0.0553088514256244
2.08,-0.0560591855441878
2.085,-0.0568180439559609
2.09,-0.0575855411589988
2.095,-0.0583617947832773
2.1,-0.0591469256454426
2.105,-0.0599410578050198
2.11,-0.0607443186221982
2.115,-0.0615568388171941
2.12,-0.0623787525312197
2.125,-0.0632101973891749
2.13,-0.0640513145640363
2.135,-0.064902248843047
2.14,-0.0657631486957353
2.145,-0.0666341663438328
2.15,-0.0675154578331276
2.155,-0.0684071831073381
2.16,-0.0693095060840654
2.165,-0.0702225947328653
2.17,-0.0711466211555399
2.175,-0.0720817616686869
2.18,-0.073028196888605
2.185,-0.0739861118186163
2.19,-0.0749556959388884
2.195,-0.0759371432988265
2.2,-0.0769306526121382
2.205,-0.0779364273546351
2.21,-0.0789546758648855
2.215,-0.0799856114477902
2.22,-0.0810294524811848
2.225,-0.0820864225255951
2.23,-0.0831567504371867
2.235,-0.0842406704841062
2.24,-0.0853384224662393
2.245,-0.086450251838556
2.25,-0.0875764098381744
2.255,-0.0887171536152025
2.26,-0.089872746367574
2.265,-0.0910434574799594
2.27,-0.0922295626668985
2.275,-0.0934313441203399
2.28,-0.094649090661684
2.285,-0.0958830978985442
2.29,-0.0971336683863517
2.295,-0.0984011117949875
2.3,-0.0996857450806464
2.305,-0.10098789266307
2.31,-0.102307886608384
2.315,-0.103646066817718
2.32,-0.105002781221834
2.325,-0.106378385981958
2.33,-0.107773245697067
2.335,-0.10918773361785
2.34,-0.110622231867578
2.345,-0.112077131670172
2.35,-0.113552833585702
2.355,-0.1150497477536
2.36,-0.116568294143887
2.365,-0.118108902816684
2.37,-0.119672014190357
2.375,-0.12125807931857
2.38,-0.122867560176643
2.385,-0.124500929957495
2.39,-0.126158673377591
2.395,-0.127841286993255
2.4,-0.129549279527726
2.405,-0.131283172209388
2.41,-0.133043499121612
2.415,-0.134830807564606
2.42,-0.136645658429801
2.425,-0.138488626587206
2.43,-0.140360301286256
2.435,-0.142261286570682
2.44,-0.144192201707922
2.445,-0.146153681633676
2.45,-0.148146377412175
2.455,-0.150170956712763
2.46,-0.152228104303494
2.465,-0.154318522562338
2.47,-0.156442932006747
2.475,-0.158602071842279
2.48,-0.160796700531056
2.485,-0.163027596380826
2.49,-0.165295558155448
2.495,-0.167601405707694
2.5,-0.169945980635194
2.505,-0.172330146960526
2.51,-0.174754791836343
2.515,-0.177220826276631
2.52,-0.17972918591507
2.525,-0.182280831791635
2.53,-0.184876751168594
2.535,-0.187517958377044
2.54,-0.190205495695271
2.545,-0.192940434260199
2.55,-0.195723875013298
2.555,-0.198556949682338
2.56,-0.201440821800447
2.565,-0.204376687764029
2.57,-0.207365777931103
2.575,-0.210409357761717
2.58,-0.213508729002188
2.585,-0.216665230914948
2.59,-0.219880241555874
2.595,-0.223155179101057
2.6,-0.226491503225031
2.605,-0.229890716532608
2.61,-0.233354366046496
2.615,-0.23688404475302
2.62,-0.240481393208323
2.625,-0.244148101207563
2.63,-0.247885909519679
2.635,-0.251696611690437
2.64,-0.255582055916571
2.645,-0.259544146993953
2.65,-0.263584848342807
2.655,-0.267706184113186
2.66,-0.271910241373952
2.665,-0.276199172388748
2.67,-0.28057519698246
2.675,-0.285040605001919
2.68,-0.289597758874686
2.685,-0.294249096269898
2.69,-0.29899713286533
2.695,-0.30384446522502
2.7,-0.308793773791856
2.705,-0.313847825999846
2.71,-0.319009479510805
2.715,-0.324281685580501
2.72,-0.329667492559379
2.725,-0.335170049533229
2.73,-0.340792610109319
2.735,-0.346538536353692
2.74,-0.352411302885575
2.745,-0.35841450113493
2.75,-0.364551843769484
2.755,-0.370827169297707
2.76,-0.377244446854386
2.765,-0.38380778117569
2.77,-0.390521417770747
2.775,-0.397389748296966
2.78,-0.40441731614655
2.785,-0.411608822251746
2.79,-0.418969131116572
2.795,-0.426503277082961
2.8,-0.434216470839311
2.805,-0.442114106179637
2.81,-0.450201767021558
2.815,-0.458485234691499
2.82,-0.466970495485486
2.825,-0.475663748513968
2.83,-0.484571413839136
2.835,-0.493700140913061
2.84,-0.503056817325007
2.845,-0.512648577866027
2.85,-0.522482813918873
2.855,-0.532567183180864
2.86,-0.542909619727141
2.865,-0.553518344421249
2.87,-0.56440187567955
2.875,-0.575569040595296
2.88,-0.58702898642757
2.885,-0.598791192459364
2.89,-0.610865482228198
2.895,-0.623262036131426
2.9,-0.635991404407207
2.905,-0.649064520490527
2.91,-0.662492714742017
2.915,-0.676287728545346
2.92,-0.690461728766895
2.925,-0.705027322568752
2.93,-0.719997572563615
2.935,-0.735386012296817
2.94,-0.751206662037426
2.945,-0.767474044856481
2.95,-0.784203202966143
2.955,-0.801409714288835
2.96,-0.819109709220192
2.965,-0.837319887543884
2.97,-0.856057535449983
2.975,-0.875340542601565
2.98,-0.895187419186492
2.985,-0.91561731288306
2.99,-0.936650025658673
2.995,-0.958306030311088
3,-0.980606486650467
