"Freq [GHz]","dB(S(ground_T1,ground_T1)) []"
2,-0.0150474470275403
2.005,-0.015117030656302
2.01,-0.0151871052708984
2.015,-0.0152576767054958
2.02,-0.0153287507876896
2.025,-0.0154003333391279
2.03,-0.0154724301760907
2.035,-0.0155450471100929
2.04,-0.0156181899484849
2.045,-0.0156918644950649
2.05,-0.0157660765506674
2.055,-0.0158408319137825
2.06,-0.0159161363811637
2.065,-0.0159919957484347
2.07,-0.0160684158107215
2.075,-0.0161454023632489
2.08,-0.0162229612019745
2.085,-0.0163010981242183
2.09,-0.0163798189292777
2.095,-0.0164591294190672
2.1,-0.0165390353987564
2.105,-0.0166195426773993
2.11,-0.0167006570685815
2.115,-0.0167823843910704
2.12,-0.0168647304694675
2.125,-0.016947701134846
2.13,-0.0170313022254394
2.135,-0.0171155395872719
2.14,-0.0172004190748606
2.145,-0.0172859465518589
2.15,-0.01737212789176
2.155,-0.0174589689785556
2.16,-0.0175464757074469
2.165,-0.0176346539855213
2.17,-0.0177235097324641
2.175,-0.0178130488812549
2.18,-0.0179032773788774
2.185,-0.0179942011870468
2.19,-0.0180858262829163
2.195,-0.018178158659815
2.2,-0.0182712043279882
2.205,-0.0183649693153201
2.21,-0.0184594596681014
2.215,-0.0185546814517665
2.22,-0.0186506407516731
2.225,-0.0187473436738515
2.23,-0.0188447963457917
2.235,-0.0189430049172238
2.24,-0.0190419755609051
2.245,-0.0191417144734156
2.25,-0.0192422278759723
2.255,-0.0193435220152362
2.26,-0.0194456031641331
2.265,-0.0195484776226786
2.27,-0.0196521517188298
2.275,-0.0197566318093136
2.28,-0.0198619242804936
2.285,-0.0199680355492291
2.29,-0.0200749720637488
2.295,-0.0201827403045246
2.3,-0.0202913467851797
2.305,-0.0204007980533705
2.31,-0.0205111006917031
2.315,-0.0206222613186567
2.32,-0.0207342865895008
2.325,-0.0208471831972524
2.33,-0.0209609578736123
2.335,-0.0210756173899272
2.34,-0.0211911685581614
2.345,-0.0213076182318755
2.35,-0.0214249733072256
2.355,-0.0215432407239611
2.36,-0.0216624274664373
2.365,-0.0217825405646439
2.37,-0.021903587095247
2.375,-0.0220255741826275
2.38,-0.0221485089999559
2.385,-0.0222723987702519
2.39,-0.0223972507674839
2.395,-0.0225230723176557
2.4,-0.022649870799928
2.405,-0.0227776536477303
2.41,-0.0229064283499115
2.415,-0.0230362024518816
2.42,-0.0231669835567841
2.425,-0.0232987793266543
2.43,-0.0234315974836431
2.435,-0.0235654458111937
2.44,-0.0237003321552751
2.445,-0.0238362644256188
2.45,-0.0239732505969621
2.455,-0.0241112987103192
2.46,-0.0242504168742508
2.465,-0.024390613266172
2.47,-0.0245318961336621
2.475,-0.0246742737957744
2.48,-0.024817754644405
2.485,-0.0249623471456279
2.49,-0.0251080598410936
2.495,-0.0252549013494025
2.5,-0.0254028803675266
2.505,-0.0255520056722266
2.51,-0.0257022861215178
2.515,-0.0258537306560964
2.52,-0.0260063483008599
2.525,-0.026160148166376
2.53,-0.026315139450418
2.535,-0.0264713314394892
2.54,-0.0266287335103906
2.545,-0.026787355131779
2.55,-0.0269472058657732
2.555,-0.0271082953695733
2.56,-0.0272706333970762
2.565,-0.0274342298005471
2.57,-0.027599094532287
2.575,-0.0277652376463347
2.58,-0.0279326693001763
2.585,-0.0281013997564932
2.59,-0.0282714393849164
2.595,-0.0284427986638177
2.6,-0.028615488182107
2.605,-0.0287895186410682
2.61,-0.0289649008562081
2.615,-0.0291416457591261
2.62,-0.0293197643994305
2.625,-0.0294992679466403
2.63,-0.0296801676921491
2.635,-0.0298624750511884
2.64,-0.0300462015648298
2.645,-0.0302313589020043
2.65,-0.0304179588615587
2.655,-0.030606013374316
2.66,-0.03079553450519
2.665,-0.0309865344553153
2.67,-0.0311790255641846
2.675,-0.0313730203118561
2.68,-0.0315685313211442
2.685,-0.0317655713598666
2.69,-0.0319641533431189
2.695,-0.0321642903355603
2.7,-0.032365995553747
2.705,-0.0325692823684886
2.71,-0.0327741643072333
2.715,-0.032980655056483
2.72,-0.0331887684642544
2.725,-0.0333985185425427
2.73,-0.0336099194698451
2.735,-0.0338229855936978
2.74,-0.0340377314332649
2.745,-0.0342541716819411
2.75,-0.0344723212100001
2.755,-0.0346921950672667
2.76,-0.0349138084858458
2.765,-0.0351371768828527
2.77,-0.0353623158632147
2.775,-0.0355892412224735
2.78,-0.0358179689496693
2.785,-0.0360485152302078
2.79,-0.0362808964488042
2.795,-0.0365151291924634
2.8,-0.0367512302534683
2.805,-0.0369892166324442
2.81,-0.0372291055414385
2.815,-0.0374709144070591
2.82,-0.0377146608736247
2.825,-0.0379603628063966
2.83,-0.0382080382948172
2.835,-0.0384577056558022
2.84,-0.0387093834370955
2.845,-0.0389630904206346
2.85,-0.0392188456259795
2.855,-0.0394766683137863
2.86,-0.0397365779893244
2.865,-0.039998594406035
2.87,-0.0402627375691373
2.875,-0.0405290277392943
2.88,-0.0407974854363077
2.885,-0.0410681314428729
2.89,-0.0413409868083878
2.895,-0.0416160728527907
2.9,-0.0418934111704778
2.905,-0.0421730236342478
2.91,-0.0424549323993113
2.915,-0.0427391599073516
2.92,-0.0430257288906268
2.925,-0.0433146623761561
2.93,-0.0436059836899156
2.935,-0.0438997164611397
2.94,-0.0441958846266406
2.945,-0.0444945124351971
2.95,-0.0447956244520179
2.955,-0.0450992455632324
2.96,-0.0454054009804704
2.965,-0.0457141162454789
2.97,-0.0460254172348245
2.975,-0.0463393301646339
2.98,-0.0466558815954067
2.985,-0.0469750984369017
2.99,-0.0472970079530753
2.995,-0.0476216377670879
3,-0.0479490158663764
