"Freq [GHz]","dB(S(ground_T1,ground_T1)) []"
2,-0.0156751954115136
2.005,-0.0157580397307201
2.01,-0.0158414329197348
2.015,-0.0159253820892213
2.02,-0.0160098943418835
2.025,-0.0160949767733405
2.03,-0.0161806364730119
2.035,-0.0162668805249989
2.04,-0.0163537160089699
2.045,-0.0164411500010453
2.05,-0.016529189574695
2.055,-0.0166178418016127
2.06,-0.0167071137526296
2.065,-0.0167970124985982
2.07,-0.0168875451112953
2.075,-0.0169787186643224
2.08,-0.017070540234018
2.085,-0.0171630169003529
2.09,-0.0172561557478605
2.095,-0.0173499638665409
2.1,-0.0174444483527767
2.105,-0.0175396163102775
2.11,-0.0176354748509831
2.115,-0.0177320310960111
2.12,-0.0178292921765902
2.125,-0.0179272652350064
2.13,-0.0180259574255358
2.135,-0.0181253759154155
2.14,-0.0182255278857849
2.145,-0.0183264205326559
2.15,-0.0184280610678785
2.155,-0.0185304567201114
2.16,-0.0186336147358072
2.165,-0.0187375423801949
2.17,-0.0188422469382672
2.175,-0.0189477357157827
2.18,-0.0190540160402751
2.185,-0.0191610952620562
2.19,-0.0192689807552335
2.195,-0.0193776799187405
2.2,-0.0194872001773718
2.205,-0.0195975489828095
2.21,-0.0197087338146881
2.215,-0.019820762181632
2.22,-0.0199336416223304
2.225,-0.0200473797066121
2.23,-0.0201619840365045
2.235,-0.0202774622473382
2.24,-0.0203938220088443
2.245,-0.0205110710262549
2.25,-0.0206292170414065
2.255,-0.0207482678338878
2.26,-0.020868231222145
2.265,-0.0209891150646447
2.27,-0.021110927261015
2.275,-0.0212336757532164
2.28,-0.0213573685266956
2.285,-0.0214820136115905
2.29,-0.0216076190839043
2.295,-0.0217341930667176
2.3,-0.021861743731403
2.305,-0.0219902792988438
2.31,-0.0221198080406741
2.315,-0.022250338280531
2.32,-0.0223818783953013
2.325,-0.0225144368164016
2.33,-0.022648022031066
2.335,-0.0227826425836255
2.34,-0.02291830707683
2.345,-0.0230550241731632
2.35,-0.0231928025961749
2.355,-0.0233316511318192
2.36,-0.0234715786298379
2.365,-0.0236125940051047
2.37,-0.0237547062390278
2.375,-0.0238979243809464
2.38,-0.0240422575495413
2.385,-0.0241877149342727
2.39,-0.0243343057968107
2.395,-0.0244820394725049
2.4,-0.0246309253718465
2.405,-0.0247809729819637
2.41,-0.0249321918681259
2.415,-0.0250845916752528
2.42,-0.0252381821294648
2.425,-0.0253929730396168
2.43,-0.0255489742988782
2.435,-0.0257061958863126
2.44,-0.0258646478684767
2.445,-0.0260243404010473
2.45,-0.0261852837304364
2.455,-0.0263474881954716
2.46,-0.0265109642290456
2.465,-0.0266757223598127
2.47,-0.0268417732138936
2.475,-0.0270091275166099
2.48,-0.0271777960942157
2.485,-0.027347789875673
2.49,-0.0275191198944273
2.495,-0.0276917972902141
2.5,-0.0278658333108804
2.505,-0.0280412393142361
2.51,-0.0282180267699051
2.515,-0.0283962072612172
2.52,-0.0285757924871159
2.525,-0.0287567942640828
2.53,-0.0289392245280849
2.535,-0.0291230953365527
2.54,-0.0293084188703681
2.545,-0.0294952074358812
2.55,-0.0296834734669473
2.555,-0.0298732295270014
2.56,-0.0300644883111273
2.565,-0.0302572626481793
2.57,-0.0304515655029144
2.575,-0.0306474099781469
2.58,-0.0308448093169356
2.585,-0.0310437769047955
2.59,-0.0312443262719282
2.595,-0.031446471095483
2.6,-0.0316502252018479
2.605,-0.0318556025689573
2.61,-0.0320626173286389
2.615,-0.0322712837689738
2.62,-0.0324816163367036
2.625,-0.0326936296396444
2.63,-0.0329073384491476
2.635,-0.0331227577025656
2.64,-0.0333399025057898
2.645,-0.0335587881357662
2.65,-0.03377943004308
2.655,-0.0340018438545426
2.66,-0.0342260453758473
2.665,-0.0344520505942046
2.67,-0.0346798756810602
2.675,-0.0349095369948129
2.68,-0.0351410510835727
2.685,-0.0353744346879524
2.69,-0.0356097047439047
2.695,-0.0358468783855708
2.7,-0.0360859729481865
2.705,-0.0363270059709991
2.71,-0.0365699952002377
2.715,-0.0368149585921261
2.72,-0.0370619143158985
2.725,-0.0373108807568908
2.73,-0.0375618765196358
2.735,-0.0378149204310335
2.74,-0.0380700315435158
2.745,-0.0383272291382877
2.75,-0.0385865327285899
2.755,-0.0388479620629955
2.76,-0.0391115371287675
2.765,-0.0393772781552325
2.77,-0.0396452056172205
2.775,-0.0399153402385283
2.78,-0.0401877029954301
2.785,-0.0404623151202376
2.79,-0.0407391981048936
2.795,-0.0410183737046259
2.8,-0.0412998639416185
2.805,-0.041583691108766
2.81,-0.0418698777734314
2.815,-0.0421584467812929
2.82,-0.0424494212602025
2.825,-0.0427428246241138
2.83,-0.0430386805770603
2.835,-0.0433370131171543
2.84,-0.0436378465406804
2.845,-0.0439412054461936
2.85,-0.044247114738714
2.855,-0.0445555996339235
2.86,-0.0448666856624641
2.865,-0.0451803986742502
2.87,-0.0454967648428697
2.875,-0.0458158106700057
2.88,-0.0461375629899341
2.885,-0.0464620489740777
2.89,-0.0467892961356086
2.895,-0.0471193323341195
2.9,-0.0474521857803312
2.905,-0.0477878850408905
2.91,-0.048126459043205
2.915,-0.0484679370803505
2.92,-0.0488123488160308
2.925,-0.0491597242895979
2.93,-0.0495100939211679
2.935,-0.0498634885167497
2.94,-0.050219939273478
2.945,-0.0505794777848936
2.95,-0.0509421360462996
2.955,-0.0513079464601812
2.96,-0.0516769418416956
2.965,-0.052049155424227
2.97,-0.0524246208650198
2.975,-0.0528033722508768
2.98,-0.0531854441039328
2.985,-0.0535708713874966
2.99,-0.0539596895119811
2.995,-0.0543519343408876
3,-0.0547476421968926
