"Freq [GHz]","dB(S(ground_T1,ground_T1)) []"
2,-0.0341382977180533
2.005,-0.0345029425626448
2.01,-0.0348699475548488
2.015,-0.0352393309030203
2.02,-0.0356111112633454
2.025,-0.0359853077452043
2.03,-0.0363619399166479
2.035,-0.0367410278099663
2.04,-0.0371225919274237
2.045,-0.0375066532470636
2.05,-0.0378932332286849
2.055,-0.0382823538199079
2.06,-0.0386740374623973
2.065,-0.0390683070981837
2.07,-0.039465186176159
2.075,-0.0398646986586597
2.08,-0.0402668690282265
2.085,-0.0406717222944881
2.09,-0.0410792840011799
2.095,-0.0414895802333224
2.1,-0.0419026376245374
2.105,-0.0423184833645201
2.11,-0.0427371452066585
2.115,-0.0431586514758204
2.12,-0.0435830310762803
2.125,-0.0440103134998297
2.13,-0.0444405288340384
2.135,-0.0448737077706938
2.14,-0.0453098816144049
2.145,-0.0457490822913831
2.15,-0.0461913423584099
2.155,-0.0466366950119903
2.16,-0.0470851740976595
2.165,-0.0475368141195359
2.17,-0.0479916502500207
2.175,-0.0484497183397233
2.18,-0.0489110549275761
2.185,-0.0493756972511714
2.19,-0.0498436832572967
2.195,-0.0503150516126935
2.2,-0.0507898417150399
2.205,-0.0512680937041532
2.21,-0.0517498484734409
2.215,-0.0522351476815609
2.22,-0.052724033764356
2.225,-0.0532165499470139
2.23,-0.0537127402565016
2.235,-0.0542126495342329
2.24,-0.0547163234490396
2.245,-0.0552238085103723
2.25,-0.0557351520818295
2.255,-0.0562504023949242
2.26,-0.0567696085631929
2.265,-0.0572928205965633
2.27,-0.057820089416053
2.275,-0.0583514668687841
2.28,-0.0588870057433202
2.285,-0.0594267597853266
2.29,-0.0599707837135845
2.295,-0.0605191332363568
2.3,-0.0610718650680973
2.305,-0.0616290369465429
2.31,-0.0621907076501837
2.315,-0.0627569370161117
2.32,-0.0633277859582827
2.325,-0.0639033164861771
2.33,-0.0644835917238888
2.335,-0.0650686759296471
2.34,-0.0656586345157697
2.345,-0.0662535340690975
2.35,-0.0668534423718863
2.355,-0.0674584284231709
2.36,-0.0680685624606436
2.365,-0.0686839159830491
2.37,-0.0693045617730821
2.375,-0.0699305739208452
2.38,-0.0705620278478657
2.385,-0.0711990003316735
2.39,-0.0718415695309741
2.395,-0.0724898150114536
2.4,-0.0731438177721695
2.405,-0.0738036602726253
2.41,-0.0744694264604914
2.415,-0.0751412018000147
2.42,-0.075819073301159
2.425,-0.0765031295494279
2.43,-0.0771934607364967
2.435,-0.0778901586915799
2.44,-0.0785933169136273
2.445,-0.0793030306043252
2.45,-0.0800193967019784
2.455,-0.0807425139162468
2.46,-0.0814724827638201
2.465,-0.0822094056050111
2.47,-0.0829533866813383
2.475,-0.0837045321541127
2.48,-0.0844629501440508
2.485,-0.0852287507719683
2.49,-0.0860020462006044
2.495,-0.0867829506775639
2.5,-0.0875715805794725
2.505,-0.0883680544573481
2.51,-0.0891724930832574
2.515,-0.0899850194982902
2.52,-0.0908057590618894
2.525,-0.0916348395026007
2.53,-0.092472390970303
2.535,-0.0933185460899281
2.54,-0.0941734400167838
2.545,-0.0950372104934902
2.55,-0.0959099979086126
2.555,-0.0967919453570589
2.56,-0.0976831987022824
2.565,-0.0985839066403806
2.57,-0.0994942207661774
2.575,-0.100414295641284
2.58,-0.10134428886434
2.585,-0.102284361143413
2.59,-0.103234676370673
2.595,-0.10419540169947
2.6,-0.105166707623842
2.605,-0.106148768060597
2.61,-0.107141760434069
2.615,-0.108145865763615
2.62,-0.109161268754024
2.625,-0.110188157888911
2.63,-0.111226725527211
2.635,-0.112277168002968
2.64,-0.113339685728456
2.645,-0.114414483300863
2.65,-0.115501769612611
2.655,-0.116601757965526
2.66,-0.117714666188985
2.665,-0.118840716762209
2.67,-0.119980136940906
2.675,-0.12113315888841
2.68,-0.122300019811555
2.685,-0.12348096210146
2.69,-0.12467623347944
2.695,-0.125886087148285
2.7,-0.127110781949138
2.705,-0.128350582524203
2.71,-0.129605759485577
2.715,-0.130876589590448
2.72,-0.132163355922959
2.725,-0.133466348083068
2.73,-0.13478586238266
2.735,-0.136122202049295
2.74,-0.137475677437955
2.745,-0.138846606251092
2.75,-0.140235313767442
2.755,-0.141642133079953
2.76,-0.143067405343311
2.765,-0.144511480031463
2.77,-0.145974715205647
2.775,-0.147457477793434
2.78,-0.148960143879268
2.785,-0.150483099007119
2.79,-0.152026738495785
2.795,-0.153591467767463
2.8,-0.155177702690282
2.805,-0.156785869935425
2.81,-0.158416407349581
2.815,-0.160069764343515
2.82,-0.161746402297479
2.825,-0.163446794984423
2.83,-0.165171429011745
2.835,-0.166920804282671
2.84,-0.168695434478135
2.845,-0.170495847560245
2.85,-0.172322586298438
2.855,-0.174176208819468
2.86,-0.176057289182456
2.865,-0.17796641798027
2.87,-0.179904202968608
2.875,-0.181871269724231
2.88,-0.183868262333803
2.885,-0.18589584411501
2.89,-0.187954698371539
2.895,-0.190045529183775
2.9,-0.192169062237071
2.905,-0.194326045689463
2.91,-0.196517251081078
2.915,-0.198743474287267
2.92,-0.201005536517858
2.925,-0.203304285364958
2.93,-0.205640595901816
2.935,-0.208015371835517
2.94,-0.210429546716307
2.945,-0.212884085206566
2.95,-0.215379984412562
2.955,-0.217918275282366
2.96,-0.220500024073308
2.965,-0.223126333892771
2.97,-0.225798346316101
2.975,-0.228517243085686
2.98,-0.231284247895485
2.985,-0.23410062826547
2.99,-0.23696769751057
2.995,-0.239886816809124
3,-0.242859397375844
