"Freq [GHz]","dB(S(ground_T1,ground_T1)) []"
2,-0.0245419862526219
2.005,-0.0247626116986029
2.01,-0.0249847575924983
2.015,-0.0252084449481164
2.02,-0.0254336951412701
2.025,-0.0256605299159538
2.03,-0.0258889713906534
2.035,-0.0261190420647671
2.04,-0.0263507648251697
2.045,-0.0265841629529083
2.05,-0.0268192601300386
2.055,-0.0270560804466029
2.06,-0.0272946484077587
2.065,-0.0275349889410379
2.07,-0.0277771274037808
2.075,-0.0280210895907232
2.08,-0.0282669017417294
2.085,-0.0285145905497041
2.09,-0.0287641831686598
2.095,-0.0290157072219879
2.1,-0.0292691908108545
2.105,-0.0295246625228342
2.11,-0.0297821514406919
2.115,-0.0300416871513765
2.12,-0.0303032997551923
2.125,-0.0305670198751996
2.13,-0.0308328786667883
2.135,-0.0311009078274948
2.14,-0.031371139607013
2.145,-0.0316436068174428
2.15,-0.0319183428437663
2.155,-0.0321953816545434
2.16,-0.032474757812883
2.165,-0.0327565064876192
2.17,-0.0330406634647757
2.175,-0.0333272651592813
2.18,-0.0336163486269525
2.185,-0.0339079515767407
2.19,-0.0342021123833004
2.195,-0.0344988700997895
2.2,-0.0347982644710347
2.205,-0.0351003359469489
2.21,-0.0354051256962993
2.215,-0.035712675620785
2.22,-0.0360230283694555
2.225,-0.0363362273534651
2.23,-0.0366523167611831
2.235,-0.036971341573674
2.24,-0.0372933475805411
2.245,-0.0376183813961571
2.25,-0.0379464904762867
2.255,-0.0382777231351219
2.26,-0.0386121285627354
2.265,-0.0389497568429471
2.27,-0.039290658971658
2.275,-0.0396348868756149
2.28,-0.0399824934316571
2.285,-0.0403335324864582
2.29,-0.0406880588767193
2.295,-0.0410461284499282
2.3,-0.0414077980856051
2.305,-0.0417731257171015
2.31,-0.0421421703539714
2.315,-0.042514992104897
2.32,-0.0428916522012067
2.325,-0.0432722130210213
2.33,-0.0436567381140144
2.335,-0.0440452922268097
2.34,-0.0444379413290864
2.345,-0.0448347526403092
2.35,-0.0452357946572276
2.355,-0.0456411371820745
2.36,-0.0460508513515089
2.365,-0.046465009666375
2.37,-0.0468836860222101
2.375,-0.0473069557406324
2.38,-0.0477348956015295
2.385,-0.0481675838761656
2.39,-0.0486051003611675
2.395,-0.0490475264134768
2.4,-0.0494949449862308
2.405,-0.0499474406656674
2.41,-0.0504050997090435
2.415,-0.0508680100836313
2.42,-0.0513362615067847
2.425,-0.0518099454871625
2.43,-0.0522891553671021
2.435,-0.0527739863662171
2.44,-0.0532645356262174
2.445,-0.0537609022570447
2.45,-0.0542631873843024
2.455,-0.0547714941981017
2.46,-0.0552859280032961
2.465,-0.0558065962711839
2.47,-0.0563336086927407
2.475,-0.0568670772334185
2.48,-0.057407116189552
2.485,-0.0579538422464452
2.49,-0.0585073745381917
2.495,-0.0590678347092929
2.5,-0.0596353469780969
2.505,-0.0602100382021947
2.51,-0.0607920379457723
2.515,-0.0613814785490111
2.52,-0.0619784951996137
2.525,-0.0625832260065352
2.53,-0.0631958120759541
2.535,-0.0638163975896231
2.54,-0.0644451298856368
2.545,-0.065082159541722
2.55,-0.0657276404611235
2.555,-0.066381729961196
2.56,-0.0670445888647901
2.565,-0.0677163815945342
2.57,-0.0683972762700875
2.575,-0.0690874448085358
2.58,-0.069787063027966
2.585,-0.0704963107543843
2.59,-0.0712153719320849
2.595,-0.0719444347375938
2.6,-0.0726836916972941
2.605,-0.0734333398089243
2.61,-0.0741935806670284
2.615,-0.074964620592518
2.62,-0.0757466707665362
2.625,-0.0765399473687448
2.63,-0.0773446717201586
2.635,-0.0781610704308106
2.64,-0.0789893755522771
2.645,-0.0798298247353951
2.65,-0.0806826613932038
2.655,-0.0815481348694636
2.66,-0.082426500612831
2.665,-0.0833180203569693
2.67,-0.0842229623067929
2.675,-0.0851416013310883
2.68,-0.0860742191617062
2.685,-0.0870211045996506
2.69,-0.0879825537282221
2.695,-0.0889588701335706
2.7,-0.08995036513286
2.705,-0.0909573580103949
2.71,-0.0919801762619464
2.715,-0.0930191558476144
2.72,-0.0940746414535759
2.725,-0.0951469867629608
2.73,-0.0962365547363011
2.735,-0.0973437179018306
2.74,-0.0984688586560521
2.745,-0.0996123695749148
2.75,-0.100774653736038
2.755,-0.101956125052343
2.76,-0.10315720861755
2.765,-0.104378341063981
2.77,-0.105619970933063
2.775,-0.1068825590591
2.78,-0.10816657896667
2.785,-0.109472517282267
2.79,-0.110800874160597
2.795,-0.11215216372615
2.8,-0.11352691453048
2.805,-0.11492567002589
2.81,-0.116348989055954
2.815,-0.117797446363591
2.82,-0.119271633117203
2.825,-0.120772157455549
2.83,-0.122299645051987
2.835,-0.123854739698689
2.84,-0.125438103911552
2.845,-0.127050419556426
2.85,-0.128692388497358
2.855,-0.130364733267565
2.86,-0.132068197763796
2.865,-0.133803547964811
2.87,-0.135571572674684
2.875,-0.137373084291627
2.88,-0.139208919603042
2.885,-0.141079940607504
2.89,-0.142987035364359
2.895,-0.144931118871574
2.9,-0.146913133972588
2.905,-0.148934052292643
2.91,-0.150994875205311
2.915,-0.153096634829701
2.92,-0.15524039505884
2.925,-0.157427252619725
2.93,-0.1596583381653
2.935,-0.161934817398789
2.94,-0.164257892230413
2.945,-0.166628801966698
2.95,-0.169048824532218
2.955,-0.171519277723602
2.96,-0.174041520495439
2.965,-0.176616954277471
2.97,-0.179247024322292
2.975,-0.181933221082494
2.98,-0.184677081615929
2.985,-0.18748019101741
2.99,-0.190344183874864
2.995,-0.193270745747462
3,-0.196261614662852
