"Freq [GHz]","dB(S(ground_T1,ground_T1)) []"
2,-0.0167631360727166
2.005,-0.0168695561440304
2.01,-0.0169765235623933
2.015,-0.0170840564535338
2.02,-0.0171921727874277
2.025,-0.0173008903817302
2.03,-0.0174102269052225
2.035,-0.0175201998812255
2.04,-0.0176308266910235
2.045,-0.0177421245772726
2.05,-0.0178541106474032
2.055,-0.0179668018770228
2.06,-0.0180802151132997
2.065,-0.0181943670783657
2.07,-0.0183092743726964
2.075,-0.0184249534784995
2.08,-0.0185414207630915
2.085,-0.0186586924822955
2.09,-0.0187767847838094
2.095,-0.0188957137106041
2.1,-0.0190154952043089
2.105,-0.0191361451085897
2.11,-0.0192576791725642
2.115,-0.0193801130541807
2.12,-0.0195034623236324
2.125,-0.0196277424667726
2.13,-0.0197529688885157
2.135,-0.0198791569162743
2.14,-0.020006321803392
2.145,-0.0201344787325777
2.15,-0.0202636428193699
2.155,-0.0203938291155926
2.16,-0.0205250526128337
2.165,-0.0206573282459272
2.17,-0.0207906708964623
2.175,-0.0209250953962995
2.18,-0.0210606165310962
2.185,-0.0211972490438488
2.19,-0.0213350076384723
2.195,-0.0214739069833633
2.2,-0.0216139617150119
2.205,-0.0217551864416027
2.21,-0.0218975957466774
2.215,-0.022041204192771
2.22,-0.0221860263251081
2.225,-0.022332076675294
2.23,-0.0224793697650468
2.235,-0.0226279201099512
2.24,-0.0227777422232269
2.245,-0.0229288506195361
2.25,-0.0230812598188027
2.255,-0.0232349843500865
2.26,-0.0233900387554475
2.265,-0.0235464375938693
2.27,-0.0237041954452123
2.275,-0.0238633269141706
2.28,-0.0240238466342983
2.285,-0.0241857692720414
2.29,-0.0243491095308153
2.295,-0.0245138821551144
2.3,-0.0246801019346658
2.305,-0.0248477837086062
2.31,-0.0250169423696984
2.315,-0.0251875928686073
2.32,-0.0253597502181926
2.325,-0.0255334294978424
2.33,-0.0257086458578782
2.335,-0.0258854145239555
2.34,-0.0260637508015534
2.345,-0.0262436700804944
2.35,-0.026425187839484
2.355,-0.026608319650745
2.36,-0.026793081184664
2.365,-0.0269794882144954
2.37,-0.0271675566211321
2.375,-0.0273573023979049
2.38,-0.027548741655453
2.385,-0.0277418906266395
2.39,-0.0279367656715209
2.395,-0.0281333832823804
2.4,-0.0283317600888146
2.405,-0.0285319128628765
2.41,-0.028733858524294
2.415,-0.0289376141457134
2.42,-0.0291431969580606
2.425,-0.0293506243559149
2.43,-0.0295599139029775
2.435,-0.0297710833375992
2.44,-0.02998415057837
2.445,-0.0301991337297991
2.45,-0.0304160510880322
2.455,-0.0306349211466768
2.46,-0.0308557626026753
2.465,-0.0310785943622614
2.47,-0.0313034355470139
2.475,-0.0315303054999455
2.48,-0.031759223791709
2.485,-0.0319902102268784
2.49,-0.0322232848502889
2.495,-0.0324584679535046
2.5,-0.0326957800813242
2.505,-0.0329352420384148
2.51,-0.0331768748960143
2.515,-0.0334206999987351
2.52,-0.0336667389714417
2.525,-0.0339150137262597
2.53,-0.0341655464696425
2.535,-0.0344183597095703
2.54,-0.0346734762628217
2.545,-0.0349309192623649
2.55,-0.0351907121648543
2.555,-0.0354528787582149
2.56,-0.0357174431693682
2.565,-0.0359844298720323
2.57,-0.0362538636946615
2.575,-0.0365257698284855
2.58,-0.0368001738356724
2.585,-0.0370771016576164
2.59,-0.0373565796233232
2.595,-0.037638634457958
2.6,-0.0379232932914762
2.605,-0.0382105836674217
2.61,-0.0385005335518207
2.615,-0.0387931713422425
2.62,-0.0390885258769662
2.625,-0.039386626444301
2.63,-0.039687502792057
2.635,-0.0399911851371218
2.64,-0.0402977041752331
2.645,-0.0406070910908709
2.65,-0.0409193775672855
2.655,-0.0412345957967254
2.66,-0.0415527784907822
2.665,-0.0418739588909125
2.67,-0.0421981707791231
2.675,-0.042525448488815
2.68,-0.0428558269158037
2.685,-0.0431893415295024
2.69,-0.0435260283843034
2.695,-0.0438659241310976
2.7,-0.0442090660290199
2.705,-0.0445554919573446
2.71,-0.0449052404275991
2.715,-0.0452583505958395
2.72,-0.0456148622751482
2.725,-0.0459748159483156
2.73,-0.0463382527807326
2.735,-0.0467052146334725
2.74,-0.0470757440766247
2.745,-0.0474498844027775
2.75,-0.0478276796407897
2.755,-0.0482091745697324
2.76,-0.0485944147330889
2.765,-0.0489834464531543
2.77,-0.0493763168457036
2.775,-0.0497730738348834
2.78,-0.0501737661683389
2.785,-0.0505784434325916
2.79,-0.0509871560686992
2.795,-0.0513999553881216
2.8,-0.0518168935888918
2.805,-0.0522380237720335
2.81,-0.0526633999582525
2.815,-0.0530930771049122
2.82,-0.0535271111232807
2.825,-0.0539655588960746
2.83,-0.0544084782952817
2.835,-0.0548559282003036
2.84,-0.0553079685163861
2.845,-0.0557646601933435
2.85,-0.0562260652446371
2.855,-0.0566922467667405
2.86,-0.057163268958845
2.865,-0.0576391971429018
2.87,-0.0581200977839769
2.875,-0.0586060385109878
2.88,-0.0590970881377766
2.885,-0.0595933166845084
2.89,-0.0600947953994995
2.895,-0.0606015967813588
2.9,-0.0611137946015385
2.905,-0.0616314639272479
2.91,-0.0621546811447881
2.915,-0.062683523983251
2.92,-0.0632180715386604
2.925,-0.0637584042984975
2.93,-0.0643046041666697
2.935,-0.064856754488897
2.94,-0.0654149400785407
2.945,-0.0659792472428761
2.95,-0.0665497638098235
2.955,-0.0671265791551461
2.96,-0.0677097842300872
2.965,-0.0682994715895437
2.97,-0.0688957354206808
2.975,-0.0694986715720651
2.98,-0.0701083775833013
2.985,-0.070724952715186
2.99,-0.0713484979803877
2.995,-0.0719791161746655
3,-0.0726169119086291
