"Freq [GHz]","dB(S(ground_T1,ground_T1)) []"
2,-0.00257852749727901
2.005,-0.00258846609263725
2.01,-0.00259830163210284
2.015,-0.00260803604740541
2.02,-0.0026176712570793
2.025,-0.00262720916665711
2.03,-0.00263665166881123
2.035,-0.00264600064355035
2.04,-0.00265525795836774
2.045,-0.00266442546841169
2.05,-0.00267350501664156
2.055,-0.00268249843399826
2.06,-0.00269140753955445
2.065,-0.00270023414066578
2.07,-0.00270898003312884
2.075,-0.0027176470013382
2.08,-0.00272623681841345
2.085,-0.0027347512463756
2.09,-0.00274319203626254
2.095,-0.00275156092829674
2.1,-0.0027598596520066
2.105,-0.00276808992637668
2.11,-0.00277625345997877
2.115,-0.00278435195111153
2.12,-0.00279238708792865
2.125,-0.00280036054856792
2.13,-0.00280827400129477
2.135,-0.0028161291046102
2.14,-0.00282392750739335
2.145,-0.00283167084901326
2.15,-0.00283936075946376
2.155,-0.00284699885947043
2.16,-0.00285458676062161
2.165,-0.00286212606547634
2.17,-0.00286961836769059
2.175,-0.0028770652521242
2.18,-0.00288446829495364
2.185,-0.00289182906378665
2.19,-0.00289914911777117
2.195,-0.00290643000770133
2.2,-0.00291367327612825
2.205,-0.00292088045746417
2.21,-0.0029280530780836
2.215,-0.00293519265642741
2.22,-0.00294230070310309
2.225,-0.00294937872099268
2.23,-0.00295642820533466
2.235,-0.00296345064383969
2.24,-0.00297044751677248
2.245,-0.00297742029705396
2.25,-0.00298437045035096
2.255,-0.00299129943516872
2.26,-0.00299820870294345
2.265,-0.00300509969813294
2.27,-0.00301197385830233
2.275,-0.00301883261420706
2.28,-0.00302567738989022
2.285,-0.00303250960275774
2.29,-0.00303933066366519
2.295,-0.00304614197700258
2.3,-0.00305294494077346
2.305,-0.00305974094667879
2.31,-0.00306653138018347
2.315,-0.00307331762061952
2.32,-0.00308010104123814
2.325,-0.00308688300930327
2.33,-0.00309366488615134
2.335,-0.00310044802728679
2.34,-0.00310723378243024
2.345,-0.00311402349561497
2.35,-0.00312081850523898
2.355,-0.00312762014414793
2.36,-0.00313442973969978
2.365,-0.00314124861383037
2.37,-0.00314807808313058
2.375,-0.00315491945890131
2.38,-0.00316177404722971
2.385,-0.00316864314904701
2.39,-0.00317552806019706
2.395,-0.00318243007149806
2.4,-0.00318935046880718
2.405,-0.00319629053307846
2.41,-0.00320325154042071
2.415,-0.00321023476217661
2.42,-0.00321724146495071
2.425,-0.00322427291070105
2.43,-0.00323133035677301
2.435,-0.00323841505596487
2.44,-0.0032455282565867
2.445,-0.00325267120251151
2.45,-0.0032598451332341
2.455,-0.00326705128392031
2.46,-0.00327429088546684
2.465,-0.00328156516454374
2.47,-0.00328887534365811
2.475,-0.0032962226412033
2.48,-0.0033036082715024
2.485,-0.00331103344485937
2.49,-0.00331849936761988
2.495,-0.00332600724220798
2.5,-0.00333355826717729
2.505,-0.00334115363726217
2.51,-0.0033487945434202
2.515,-0.00335648217288432
2.52,-0.00336421770919953
2.525,-0.00337200233227314
2.53,-0.00337983721842395
2.535,-0.00338772354041905
2.54,-0.00339566246752202
2.545,-0.00340365516552776
2.55,-0.00341170279681561
2.555,-0.00341980652038797
2.56,-0.00342796749190221
2.565,-0.00343618686372956
2.57,-0.00344446578497065
2.575,-0.00345280540152304
2.58,-0.00346120685610062
2.585,-0.00346967128827612
2.59,-0.00347819983452457
2.595,-0.0034867936282533
2.6,-0.00349545379985118
2.605,-0.00350418147671186
2.61,-0.00351297778327631
2.615,-0.00352184384106949
2.62,-0.00353078076873235
2.625,-0.00353978968206331
2.63,-0.00354887169404249
2.635,-0.00355802791487616
2.64,-0.00356725945201999
2.645,-0.00357656741022539
2.65,-0.00358595289155606
2.655,-0.00359541699543625
2.66,-0.00360496081866535
2.665,-0.00361458545547101
2.67,-0.00362429199751988
2.675,-0.00363408153395912
2.68,-0.00364395515144357
2.685,-0.00365391393416859
2.69,-0.00366395896389526
2.695,-0.0036740913199823
2.7,-0.0036843120794151
2.705,-0.00369462231683093
2.71,-0.00370502310454986
2.715,-0.00371551551260383
2.72,-0.00372610060875797
2.725,-0.00373677945854833
2.73,-0.00374755312529449
2.735,-0.00375842267013733
2.74,-0.00376938915206033
2.745,-0.00378045362791381
2.75,-0.00379161715244298
2.755,-0.00380288077831607
2.76,-0.00381424555613985
2.765,-0.00382571253449059
2.77,-0.0038372827599364
2.775,-0.00384895727706336
2.78,-0.00386073712849396
2.785,-0.00387262335491813
2.79,-0.00388461699510292
2.795,-0.00389671908593225
2.8,-0.00390893066241277
2.805,-0.00392125275771161
2.81,-0.00393368640315843
2.815,-0.00394623262828992
2.82,-0.00395889246084896
2.825,-0.00397166692682428
2.83,-0.00398455705045349
2.835,-0.00399756385426276
2.84,-0.00401068835906983
2.845,-0.0040239315840121
2.85,-0.00403729454656609
2.855,-0.00405077826256298
2.86,-0.00406438374621477
2.865,-0.0040781120101212
2.87,-0.00409196406530071
2.875,-0.00410594092120896
2.88,-0.004120043585736
2.885,-0.00413427306525662
2.89,-0.00414863036462563
2.895,-0.00416311648719445
2.9,-0.00417773243484202
2.905,-0.00419247920798469
2.91,-0.00420735780559077
2.915,-0.00422236922519805
2.92,-0.00423751446293226
2.925,-0.0042527945135275
2.93,-0.00426821037032731
2.935,-0.00428376302531861
2.94,-0.00429945346913375
2.945,-0.00431528269107191
2.95,-0.00433125167911657
2.955,-0.00434736141993859
2.96,-0.00436361289892818
2.965,-0.004380007100196
2.97,-0.00439654500659264
2.975,-0.00441322759972222
2.98,-0.00443005585995421
2.985,-0.00444703076644469
2.99,-0.00446415329713759
2.995,-0.00448142442879271
3,-0.00449884513698404
