"Freq [GHz]","dB(S(ground_T1,ground_T1)) []"
2,-0.0245164185296958
2.005,-0.0248080628899482
2.01,-0.0251048839864815
2.015,-0.0254069726555638
2.02,-0.0257144228287914
2.025,-0.0260273316293038
2.03,-0.026345799471998
2.035,-0.0266699301679209
2.04,-0.0269998310330485
2.045,-0.0273356130016252
2.05,-0.0276773907442852
2.055,-0.0280252827911985
2.06,-0.0283794116604211
2.065,-0.0287399039917597
2.07,-0.0291068906863562
2.075,-0.0294805070522859
2.08,-0.0298608929564842
2.085,-0.0302481929832361
2.09,-0.0306425565996209
2.095,-0.0310441383282164
2.1,-0.0314530979274062
2.105,-0.031869600579699
2.11,-0.032293817088443
2.115,-0.0327259240833334
2.12,-0.033166104235211
2.125,-0.0336145464805663
2.13,-0.0340714462562854
2.135,-0.0345370057451455
2.14,-0.0350114341326133
2.145,-0.0354949478755795
2.15,-0.035987770983569
2.155,-0.0364901353131996
2.16,-0.0370022808764989
2.165,-0.03752445616387
2.17,-0.0380569184825063
2.175,-0.0385999343110654
2.18,-0.0391537796715125
2.185,-0.0397187405190753
2.19,-0.0402951131513448
2.195,-0.0408832046375414
2.2,-0.0414833332691345
2.205,-0.0420958290330082
2.21,-0.0427210341084842
2.215,-0.0433593033895368
2.22,-0.044011005033719
2.225,-0.0446765210393501
2.23,-0.0453562478525955
2.235,-0.0460505970062913
2.24,-0.0467599957923661
2.245,-0.0474848879698953
2.25,-0.0482257345110081
2.255,-0.0489830143869242
2.26,-0.0497572253966432
2.265,-0.0505488850409402
2.27,-0.0513585314445281
2.275,-0.0521867243294756
2.28,-0.0530340460431214
2.285,-0.0539011026440666
2.29,-0.0547885250500244
2.295,-0.0556969702515837
2.3,-0.0566271225963091
2.305,-0.0575796951478804
2.31,-0.0585554311253733
2.315,-0.0595551054281453
2.32,-0.060579526252304
2.325,-0.0616295368050794
2.33,-0.0627060171240627
2.335,-0.0638098860087763
2.34,-0.0649421030726489
2.345,-0.066103670924191
2.35,-0.0672956374868637
2.355,-0.0685190984679837
2.36,-0.0697751999878578
2.365,-0.0710651413813879
2.37,-0.0723901781854392
2.375,-0.0737516253264342
2.38,-0.0751508605240681
2.385,-0.0765893279283512
2.39,-0.0780685420090297
2.395,-0.0795900917179952
2.4,-0.0811556449475707
2.405,-0.0827669533096375
2.41,-0.0844258572631524
2.415,-0.0861342916204405
2.42,-0.0878942914657991
2.425,-0.0897079985235321
2.43,-0.0915776680165405
2.435,-0.0935056760611991
2.44,-0.095494527649355
2.445,-0.0975468652742179
2.45,-0.0996654782636016
2.455,-0.101853312891654
2.46,-0.104113483349029
2.465,-0.106449283661657
2.47,-0.108864200659968
2.475,-0.111361928114155
2.48,-0.113946382166921
2.485,-0.116621718213834
2.49,-0.119392349403323
2.495,-0.122262966954293
2.5,-0.125238562520018
2.505,-0.128324452863723
2.51,-0.13152630715528
2.515,-0.134850177251433
2.52,-0.138302531386386
2.525,-0.141890291778028
2.53,-0.145620876751249
2.535,-0.1495022480987
2.54,-0.153542964546777
2.545,-0.157752242379027
2.55,-0.162140024501051
2.555,-0.166717059524683
2.56,-0.17149499282342
2.565,-0.176486471991387
2.57,-0.1817052697584
2.575,-0.187166428220144
2.58,-0.192886429297885
2.585,-0.198883397731489
2.59,-0.205177344749488
2.595,-0.21179046300876
2.6,-0.218747486669324
2.605,-0.226076134856524
2.61,-0.233807662645803
2.615,-0.241977551574826
2.62,-0.250626382132659
2.625,-0.259800944313459
2.63,-0.269555659567068
2.635,-0.279954407938065
2.64,-0.291072875194128
2.645,-0.303001547999056
2.65,-0.315849469204637
2.655,-0.329748769075535
2.66,-0.344859696728024
2.665,-0.361375142288764
2.67,-0.379521966184624
2.675,-0.399552938736885
2.68,-0.421716493495504
2.685,-0.446181459198111
2.69,-0.472886232668152
2.695,-0.501301341639497
2.7,-0.530194531811426
2.705,-0.557685529453165
2.71,-0.581935406026229
2.715,-0.602269742108864
2.72,-0.619735939495836
2.725,-0.636472713358153
2.73,-0.654597084877729
2.735,-0.67557086572912
2.74,-0.700183523443518
2.745,-0.728796614844112
2.75,-0.761579332168946
2.755,-0.798657672139242
2.76,-0.840191477018368
2.765,-0.88640960891934
2.77,-0.937625323169938
2.775,-0.994244205090167
2.78,-1.0567708051103
2.785,-1.12581685421867
2.79,-1.20211244880184
2.795,-1.28652100955771
2.8,-1.3800586791877
2.805,-1.48391890407516
2.81,-1.59950314987111
2.815,-1.72845899865278
2.82,-1.8727272702591
2.825,-2.03460033104631
2.83,-2.21679445288032
2.835,-2.42254005149659
2.84,-2.65569501044594
2.845,-2.92088832588868
2.85,-3.22370440271741
2.855,-3.57092322337791
2.86,-3.97083961441426
2.865,-4.433698392913
2.87,-4.97230594230386
2.875,-5.60292193925513
2.88,-6.34661645522934
2.885,-7.23143842813027
2.89,-8.29607541071223
2.895,-9.59642086667333
2.9,-11.2181971997735
2.905,-13.3030444736195
2.91,-16.1047135664758
2.915,-20.0708976731485
2.92,-24.7829872817668
2.925,-22.8314228816036
2.93,-18.1523453621301
2.935,-14.8133426041999
2.94,-12.4090591565329
2.945,-10.5845071528215
2.95,-9.14627730678543
2.955,-7.98252104786954
2.96,-7.02318828395078
2.965,-6.22138606798908
2.97,-5.54404082813127
2.975,-4.96686725524637
2.98,-4.47147335887221
2.985,-4.04359557775067
2.99,-3.67196690958645
2.995,-3.34755826045298
3,-3.0630502872517
