"Freq [GHz]","dB(S(ground_T1,ground_T1)) []"
2,-0.017928196199823
2.005,-0.0180756286911749
2.01,-0.0182248583628742
2.015,-0.0183759059967208
2.02,-0.0185287928552698
2.025,-0.0186835406920137
2.03,-0.0188401717618774
2.035,-0.0189987088319914
2.04,-0.0191591751928191
2.045,-0.0193215946695721
2.05,-0.0194859916339827
2.055,-0.0196523910164127
2.06,-0.0198208183183282
2.065,-0.0199912996251204
2.07,-0.0201638616193321
2.075,-0.0203385315942534
2.08,-0.0205153374679367
2.085,-0.0206943077976183
2.09,-0.0208754717945721
2.095,-0.021058859339416
2.1,-0.0212445009978635
2.105,-0.0214324280369569
2.11,-0.0216226724417836
2.115,-0.0218152669327267
2.12,-0.022010244983175
2.125,-0.0222076408378459
2.13,-0.0224074895316246
2.135,-0.0226098269089803
2.14,-0.0228146896439949
2.145,-0.0230221152610066
2.15,-0.02323214215588
2.155,-0.0234448096179511
2.16,-0.023660157852638
2.165,-0.0238782280047781
2.17,-0.0240990621826934
2.175,-0.0243227034829984
2.18,-0.0245491960162044
2.185,-0.0247785849331458
2.19,-0.0250109164522179
2.195,-0.0252462378875229
2.2,-0.0254845976778934
2.205,-0.0257260454168508
2.21,-0.0259706318835577
2.215,-0.0262184090747466
2.22,-0.0264694302377047
2.225,-0.0267237499043417
2.23,-0.0269814239263663
2.235,-0.0272425095116415
2.24,-0.0275070652617239
2.245,-0.0277751512106708
2.25,-0.0280468288651488
2.255,-0.0283221612458657
2.26,-0.0286012129304251
2.265,-0.0288840500976322
2.27,-0.0291707405732811
2.275,-0.0294613538775471
2.28,-0.0297559612739856
2.285,-0.0300546358202056
2.29,-0.0303574524203465
2.295,-0.0306644878793343
2.3,-0.0309758209590727
2.305,-0.0312915324365789
2.31,-0.0316117051642053
2.315,-0.0319364241319704
2.32,-0.0322657765321253
2.325,-0.0325998518260461
2.33,-0.032938741813493
2.335,-0.0332825407044389
2.34,-0.0336313451934502
2.345,-0.03398525453682
2.35,-0.0343443706325191
2.355,-0.0347087981031076
2.36,-0.0350786443817172
2.365,-0.0354540198012291
2.37,-0.0358350376868134
2.375,-0.0362218144519346
2.38,-0.0366144696980055
2.385,-0.037013126317824
2.39,-0.0374179106029692
2.395,-0.0378289523553266
2.4,-0.0382463850029243
2.405,-0.0386703457202696
2.41,-0.039100975553391
2.415,-0.039538419549785
2.42,-0.0399828268934915
2.425,-0.0404343510455448
2.43,-0.040893149890021
2.435,-0.0413593858859454
2.44,-0.0418332262253389
2.445,-0.0423148429976759
2.45,-0.0428044133610499
2.455,-0.0433021197203622
2.46,-0.0438081499128792
2.465,-0.0443226974014666
2.47,-0.044845961475926
2.475,-0.0453781474627374
2.48,-0.0459194669437074
2.485,-0.0464701379838706
2.49,-0.0470303853691347
2.495,-0.0476004408541521
2.5,-0.0481805434208938
2.505,-0.0487709395484642
2.51,-0.0493718834947326
2.515,-0.0499836375903591
2.52,-0.0506064725458194
2.525,-0.0512406677721414
2.53,-0.0518865117159855
2.535,-0.0525443022098615
2.54,-0.0532143468382238
2.545,-0.0538969633202944
2.55,-0.0545924799104778
2.555,-0.0553012358172834
2.56,-0.0560235816417477
2.565,-0.0567598798364159
2.57,-0.0575105051859168
2.575,-0.0582758453103808
2.58,-0.0590563011928793
2.585,-0.0598522877322186
2.59,-0.0606642343225021
2.595,-0.0614925854609092
2.6,-0.0623378013852943
2.605,-0.063200358743242
2.61,-0.0640807512944202
2.615,-0.0649794906480581
2.62,-0.0658971070375897
2.625,-0.0668341501346199
2.63,-0.0677911899044819
2.635,-0.0687688175058195
2.64,-0.0697676462367868
2.645,-0.0707883125306344
2.65,-0.0718314770036404
2.655,-0.0728978255585282
2.66,-0.0739880705467282
2.665,-0.0751029519930922
2.67,-0.0762432388868854
2.675,-0.0774097305431858
2.68,-0.0786032580390688
2.685,-0.0798246857292594
2.69,-0.0810749128463725
2.695,-0.0823548751910246
2.7,-0.0836655469176917
2.705,-0.0850079424224902
2.71,-0.0863831183395426
2.715,-0.0877921756530608
2.72,-0.0892362619328907
2.725,-0.0907165737016955
2.73,-0.0922343589427313
2.735,-0.0937909197577214
2.74,-0.0953876151851665
2.745,-0.0970258641901336
2.75,-0.09870714883751
2.755,-0.100433017661602
2.76,-0.102205089245984
2.765,-0.104025056028628
2.77,-0.105894688348571
2.775,-0.107815838751635
2.78,-0.109790446574249
2.785,-0.111820542825888
2.79,-0.113908255392457
2.795,-0.116055814584762
2.8,-0.118265559058279
2.805,-0.120539942132668
2.81,-0.122881538542008
2.815,-0.125293051649281
2.82,-0.127777321161742
2.825,-0.130337331387024
2.83,-0.132976220073279
2.835,-0.135697287880805
2.84,-0.138504008536709
2.845,-0.141400039729114
2.85,-0.144389234802512
2.855,-0.147475655321787
2.86,-0.150663584578789
2.865,-0.153957542122431
2.87,-0.157362299401115
2.875,-0.160882896615048
2.88,-0.164524660885546
2.885,-0.168293225859231
2.89,-0.172194552876843
2.895,-0.176234953849659
2.9,-0.180421116001198
2.905,-0.184760128648412
2.91,-0.189259512214709
2.915,-0.193927249687829
2.92,-0.198771820758318
2.925,-0.203802238900125
2.93,-0.209028091683416
2.935,-0.214459584642138
2.94,-0.220107589054932
2.945,-0.2259836940389
2.95,-0.232100263401549
2.955,-0.238470497748133
2.96,-0.245108502399988
2.965,-0.252029361745731
2.97,-0.259249220722028
2.975,-0.266785374205508
2.98,-0.274656365194005
2.985,-0.282882092764707
2.99,-0.291483930921918
2.995,-0.300484859589277
3,-0.30990960916401
