"Freq [GHz]","dB(S(ground_T1,ground_T1)) []"
2,-0.0145941748337598
2.005,-0.014648068886751
2.01,-0.0147023633986043
2.015,-0.0147570622241841
2.02,-0.0148121692255574
2.025,-0.014867688272196
2.03,-0.0149236232411427
2.035,-0.014979978017202
2.04,-0.0150367564931051
2.045,-0.0150939625697133
2.05,-0.015151600156181
2.055,-0.0152096731701355
2.06,-0.0152681855378629
2.065,-0.0153271411944887
2.07,-0.0153865440841527
2.075,-0.0154463981601834
2.08,-0.0155067073852877
2.085,-0.0155674757317215
2.09,-0.0156287071814688
2.095,-0.0156904057264259
2.1,-0.0157525753685725
2.105,-0.0158152201201461
2.11,-0.0158783440038358
2.115,-0.015941951052943
2.12,-0.0160060453115704
2.125,-0.0160706308347846
2.13,-0.0161357116888186
2.135,-0.0162012919512204
2.14,-0.0162673757110516
2.145,-0.0163339670690515
2.15,-0.0164010701378212
2.155,-0.0164686890419966
2.16,-0.0165368279184276
2.165,-0.0166054909163563
2.17,-0.0166746821975854
2.175,-0.0167444059366667
2.18,-0.0168146663210696
2.185,-0.0168854675513568
2.19,-0.0169568138413761
2.195,-0.0170287094184082
2.2,-0.017101158523376
2.205,-0.0171741654109946
2.21,-0.017247734349968
2.215,-0.0173218696231506
2.22,-0.0173965755277372
2.225,-0.0174718563754241
2.23,-0.0175477164926044
2.235,-0.0176241602205315
2.24,-0.017701191915503
2.245,-0.0177788159490314
2.25,-0.0178570367080296
2.255,-0.0179358585949819
2.26,-0.0180152860281288
2.265,-0.0180953234416319
2.27,-0.0181759752857638
2.275,-0.0182572460270858
2.28,-0.0183391401486157
2.285,-0.0184216621500138
2.29,-0.0185048165477613
2.295,-0.018588607875338
2.3,-0.0186730406833995
2.305,-0.0187581195399566
2.31,-0.0188438490305538
2.315,-0.0189302337584539
2.32,-0.0190172783448084
2.325,-0.0191049874288491
2.33,-0.0191933656680573
2.335,-0.0192824177383447
2.34,-0.0193721483342457
2.345,-0.0194625621690851
2.35,-0.0195536639751659
2.355,-0.0196454585039436
2.36,-0.0197379505262204
2.365,-0.019831144832315
2.37,-0.0199250462322494
2.375,-0.0200196595559349
2.38,-0.0201149896533482
2.385,-0.0202110413947221
2.39,-0.0203078196707148
2.395,-0.0204053293926162
2.4,-0.0205035754925099
2.405,-0.0206025629234734
2.41,-0.0207022966597521
2.415,-0.0208027816969521
2.42,-0.0209040230522243
2.425,-0.0210060257644427
2.43,-0.0211087948944015
2.435,-0.0212123355250016
2.44,-0.0213166527614238
2.445,-0.0214217517313342
2.45,-0.0215276375850642
2.455,-0.021634315495794
2.46,-0.0217417906597496
2.465,-0.0218500682963903
2.47,-0.0219591536485978
2.475,-0.0220690519828605
2.48,-0.0221797685894798
2.485,-0.022291308782744
2.49,-0.0224036779011299
2.495,-0.0225168813074884
2.5,-0.0226309243892494
2.505,-0.0227458125586008
2.51,-0.0228615512526933
2.515,-0.0229781459338262
2.52,-0.0230956020896451
2.525,-0.0232139252333443
2.53,-0.0233331209038499
2.535,-0.0234531946660241
2.54,-0.0235741521108663
2.545,-0.0236959988556985
2.55,-0.0238187405443726
2.555,-0.0239423828474707
2.56,-0.0240669314624996
2.565,-0.024192392114084
2.57,-0.0243187705541844
2.575,-0.0244460725622859
2.58,-0.0245743039456027
2.585,-0.0247034705392795
2.59,-0.0248335782065973
2.595,-0.0249646328391779
2.6,-0.0250966403571813
2.605,-0.0252296067095179
2.61,-0.025363537874053
2.615,-0.0254984398578116
2.62,-0.0256343186971878
2.625,-0.0257711804581401
2.63,-0.0259090312364253
2.635,-0.0260478771577817
2.64,-0.0261877243781588
2.645,-0.0263285790839077
2.65,-0.0264704474920202
2.655,-0.02661333585031
2.66,-0.0267572504376438
2.665,-0.02690219756415
2.67,-0.0270481835714434
2.675,-0.0271952148328195
2.68,-0.0273432977534879
2.685,-0.0274924387707764
2.69,-0.0276426443543629
2.695,-0.0277939210064832
2.7,-0.0279462752621455
2.705,-0.0280997136893679
2.71,-0.0282542428893749
2.715,-0.028409869496844
2.72,-0.028566600180107
2.725,-0.0287244416413877
2.73,-0.0288834006170175
2.735,-0.0290434838776591
2.74,-0.0292046982285447
2.745,-0.0293670505096834
2.75,-0.0295305475961046
2.755,-0.0296951963980751
2.76,-0.0298610038613403
2.765,-0.0300279769673407
2.77,-0.03019612273345
2.775,-0.0303654482132114
2.78,-0.030535960496557
2.785,-0.0307076667100548
2.79,-0.030880574017135
2.795,-0.0310546896183282
2.8,-0.0312300207515043
2.805,-0.0314065746921047
2.81,-0.0315843587533803
2.815,-0.0317633802866378
2.82,-0.0319436466814772
2.825,-0.0321251653660251
2.83,-0.0323079438071858
2.835,-0.0324919895108858
2.84,-0.0326773100223054
2.845,-0.0328639129261348
2.85,-0.0330518058468238
2.855,-0.0332409964488159
2.86,-0.0334314924368031
2.865,-0.033623301555978
2.87,-0.033816431592276
2.875,-0.0340108903726374
2.88,-0.0342066857652497
2.885,-0.0344038256798041
2.89,-0.0346023180677538
2.895,-0.0348021709225618
2.9,-0.0350033922799635
2.905,-0.0352059902182198
2.91,-0.0354099728583843
2.915,-0.0356153483645466
2.92,-0.035822124944114
2.925,-0.036030310848054
2.93,-0.0362399143711665
2.935,-0.0364509438523525
2.94,-0.0366634076748648
2.945,-0.0368773142665932
2.95,-0.0370926721003146
2.955,-0.0373094896939674
2.96,-0.037527775610928
2.965,-0.0377475384602719
2.97,-0.0379687868970514
2.975,-0.0381915296225658
2.98,-0.0384157753846373
2.985,-0.0386415329778862
2.99,-0.038868811244005
2.995,-0.0390976190720384
3,-0.0393279653986638
