"Freq [GHz]","dB(S(ground_T1,ground_T1)) []"
2,-0.0149450192035964
2.005,-0.0150187564307251
2.01,-0.015092933610351
2.015,-0.0151675616636889
2.02,-0.0152426514482985
2.025,-0.015318213759258
2.03,-0.0153942593302996
2.035,-0.0154707988349768
2.04,-0.0155478428878065
2.045,-0.015625402045442
2.05,-0.0157034868078205
2.055,-0.0157821076193435
2.06,-0.0158612748700231
2.065,-0.0159409988966848
2.07,-0.0160212899841167
2.075,-0.0161021583662796
2.08,-0.0161836142274779
2.085,-0.016265667703563
2.09,-0.0163483288831464
2.095,-0.0164316078087901
2.1,-0.0165155144782473
2.105,-0.0166000588456863
2.11,-0.0166852508229128
2.115,-0.0167711002806348
2.12,-0.0168576170497159
2.125,-0.0169448109224357
2.13,-0.017032691653785
2.135,-0.0171212689627368
2.14,-0.0172105525335701
2.145,-0.0173005520171793
2.15,-0.017391277032398
2.155,-0.0174827371673657
2.16,-0.0175749419808639
2.165,-0.0176679010037023
2.17,-0.0177616237401163
2.175,-0.0178561196691719
2.18,-0.0179513982461829
2.185,-0.0180474689041679
2.19,-0.018144341055305
2.195,-0.0182420240924151
2.2,-0.0183405273904721
2.205,-0.0184398603081055
2.21,-0.0185400321891664
2.215,-0.0186410523642846
2.22,-0.0187429301524427
2.225,-0.0188456748626163
2.23,-0.0189492957953895
2.235,-0.0190538022446186
2.24,-0.0191592034991195
2.245,-0.0192655088443927
2.25,-0.019372727564342
2.255,-0.0194808689430561
2.26,-0.0195899422665991
2.265,-0.0196999568248519
2.27,-0.0198109219133356
2.275,-0.0199228468351454
2.28,-0.0200357409028182
2.285,-0.0201496134403332
2.29,-0.0202644737850645
2.295,-0.020380331289821
2.3,-0.0204971953248941
2.305,-0.0206150752801532
2.31,-0.0207339805671773
2.315,-0.0208539206214244
2.32,-0.0209749049044345
2.325,-0.0210969429060925
2.33,-0.0212200441469001
2.335,-0.021344218180321
2.34,-0.0214694745951557
2.345,-0.0215958230179575
2.35,-0.0217232731155042
2.355,-0.0218518345973135
2.36,-0.0219815172181923
2.365,-0.0221123307808679
2.37,-0.0222442851386209
2.375,-0.0223773901980288
2.38,-0.0225116559217051
2.385,-0.0226470923311375
2.39,-0.0227837095095454
2.395,-0.0229215176048259
2.4,-0.0230605268325314
2.405,-0.0232007474789252
2.41,-0.0233421899040905
2.415,-0.0234848645450867
2.42,-0.0236287819192134
2.425,-0.0237739526272743
2.43,-0.0239203873569683
2.435,-0.0240680968863186
2.44,-0.0242170920871669
2.445,-0.0243673839287599
2.45,-0.0245189834813819
2.455,-0.0246719019200993
2.46,-0.0248261505285351
2.465,-0.0249817407027544
2.47,-0.0251386839552278
2.475,-0.0252969919188628
2.48,-0.0254566763511111
2.485,-0.025617749138199
2.49,-0.025780222299402
2.495,-0.0259441079914338
2.5,-0.026109418512921
2.505,-0.0262761663089603
2.51,-0.0264443639757979
2.515,-0.0266140242655646
2.52,-0.0267851600911586
2.525,-0.0269577845311889
2.53,-0.0271319108350502
2.535,-0.0273075524280891
2.54,-0.0274847229168829
2.545,-0.0276634360946424
2.55,-0.0278437059467004
2.555,-0.0280255466561448
2.56,-0.0282089726095572
2.565,-0.028393998402872
2.57,-0.0285806388473712
2.575,-0.0287689089757864
2.58,-0.0289588240485569
2.585,-0.0291503995601898
2.59,-0.0293436512457866
2.595,-0.0295385950876875
2.6,-0.0297352473222715
2.605,-0.0299336244468922
2.61,-0.0301337432269574
2.615,-0.0303356207031817
2.62,-0.0305392741989667
2.625,-0.0307447213279754
2.63,-0.030951980001818
2.635,-0.031161068437959
2.64,-0.0313720051677587
2.645,-0.0315848090446936
2.65,-0.031799499252762
2.655,-0.0320160953150647
2.66,-0.0322346171025755
2.665,-0.0324550848431037
2.67,-0.0326775191304348
2.675,-0.0329019409336852
2.68,-0.0331283716068592
2.685,-0.0333568328986021
2.69,-0.0335873469621756
2.695,-0.0338199363656439
2.7,-0.0340546241022893
2.705,-0.0342914336012401
2.71,-0.0345303887383426
2.715,-0.0347715138472677
2.72,-0.0350148337308553
2.725,-0.0352603736727178
2.73,-0.0355081594490824
2.735,-0.0357582173408913
2.74,-0.0360105741461955
2.745,-0.036265257192775
2.75,-0.0365222943510869
2.755,-0.0367817140474482
2.76,-0.0370435452775417
2.765,-0.0373078176202171
2.77,-0.0375745612515645
2.775,-0.0378438069593473
2.78,-0.0381155861577068
2.785,-0.0383899309022194
2.79,-0.0386668739052877
2.795,-0.0389464485518441
2.8,-0.0392286889154316
2.805,-0.0395136297746334
2.81,-0.0398013066298564
2.815,-0.0400917557204954
2.82,-0.0403850140424824
2.825,-0.0406811193662094
2.83,-0.0409801102548721
2.835,-0.041282026083211
2.84,-0.0415869070566603
2.845,-0.0418947942309551
2.85,-0.0422057295321299
2.855,-0.0425197557770087
2.86,-0.0428369166941395
2.865,-0.0431572569451671
2.87,-0.0434808221467486
2.875,-0.0438076588928909
2.88,-0.044137814777848
2.885,-0.0444713384194898
2.89,-0.0448082794832287
2.895,-0.0451486887064641
2.9,-0.0454926179235899
2.905,-0.0458401200915687
2.91,-0.0461912493160641
2.915,-0.0465460608781902
2.92,-0.0469046112618597
2.925,-0.0472669581817309
2.93,-0.0476331606118206
2.935,-0.0480032788147502
2.94,-0.0483773743716533
2.945,-0.0487555102127827
2.95,-0.0491377506487818
2.955,-0.0495241614027053
2.96,-0.0499148096427673
2.965,-0.0503097640157956
2.97,-0.0507090946815093
2.975,-0.0511128733475507
2.98,-0.0515211733053192
2.985,-0.0519340694666396
2.99,-0.0523516384012683
2.995,-0.0527739583752703
3,-0.0532011093902556
