"Freq [GHz]","dB(S(ground_T1,ground_T1)) []"
2,-0.0141767350982881
2.005,-0.0142270619246464
2.01,-0.0142775662540743
2.015,-0.0143282622725528
2.02,-0.0143791640260996
2.025,-0.0144302854214349
2.03,-0.0144816402266702
2.035,-0.0145332420719784
2.04,-0.0145851044502811
2.045,-0.0146372407179267
2.05,-0.0146896640953867
2.055,-0.0147423876679358
2.06,-0.0147954243863358
2.065,-0.0148487870675646
2.07,-0.0149024883954809
2.075,-0.0149565409215545
2.08,-0.0150109570655688
2.085,-0.0150657491163526
2.09,-0.0151209292324864
2.095,-0.0151765094430578
2.1,-0.0152325016483858
2.105,-0.015288917620782
2.11,-0.0153457690053129
2.115,-0.0154030673205597
2.12,-0.0154608239594109
2.125,-0.0155190501898431
2.13,-0.0155777571557324
2.135,-0.0156369558776753
2.14,-0.0156966572538128
2.145,-0.0157568720606666
2.15,-0.0158176109540219
2.155,-0.0158788844697856
2.16,-0.0159407030248746
2.165,-0.0160030769181338
2.17,-0.0160660163312618
2.175,-0.0161295313297548
2.18,-0.0161936318638611
2.185,-0.0162583277695895
2.19,-0.0163236287696855
2.195,-0.0163895444746881
2.2,-0.0164560843839657
2.205,-0.0165232578867936
2.21,-0.0165910742634526
2.215,-0.0166595426863643
2.22,-0.0167286722212393
2.225,-0.0167984718282513
2.23,-0.016868950363256
2.235,-0.0169401165790332
2.24,-0.0170119791265458
2.245,-0.0170845465562529
2.25,-0.0171578273194444
2.255,-0.0172318297696068
2.26,-0.0173065621638371
2.265,-0.0173820326642809
2.27,-0.0174582493396093
2.275,-0.0175352201665538
2.28,-0.0176129530314519
2.285,-0.0176914557318567
2.29,-0.0177707359781853
2.295,-0.017850801395402
2.3,-0.0179316595247645
2.305,-0.0180133178256031
2.31,-0.0180957836771577
2.315,-0.0181790643804537
2.32,-0.0182631671602484
2.325,-0.0183480991670153
2.33,-0.0184338674789889
2.335,-0.0185204791042752
2.34,-0.0186079409829986
2.345,-0.018696259989538
2.35,-0.0187854429348007
2.355,-0.0188754965685784
2.36,-0.0189664275819528
2.365,-0.019058242609789
2.37,-0.0191509482332829
2.375,-0.0192445509825795
2.38,-0.0193390573394856
2.385,-0.0194344737402316
2.39,-0.0195308065783393
2.395,-0.0196280622075423
2.4,-0.0197262469448155
2.405,-0.0198253670734731
2.41,-0.0199254288463642
2.415,-0.0200264384891514
2.42,-0.0201284022036865
2.425,-0.020231326171481
2.43,-0.0203352165572833
2.435,-0.020440079512741
2.44,-0.0205459211801731
2.445,-0.0206527476964656
2.45,-0.0207605651970477
2.455,-0.0208693798200044
2.46,-0.0209791977103054
2.465,-0.0210900250241276
2.47,-0.0212018679333321
2.475,-0.0213147326300455
2.48,-0.0214286253313922
2.485,-0.0215435522843239
2.49,-0.0216595197706409
2.495,-0.0217765341120896
2.5,-0.02189460167566
2.505,-0.0220137288790008
2.51,-0.0221339221959895
2.515,-0.0222551881624871
2.52,-0.0223775333821993
2.525,-0.0225009645327742
2.53,-0.022625488371999
2.535,-0.0227511117442289
2.54,-0.0228778415869559
2.545,-0.0230056849375916
2.55,-0.0231346489404222
2.555,-0.0232647408537503
2.56,-0.0233959680572732
2.565,-0.0235283380596253
2.57,-0.0236618585061448
2.575,-0.0237965371868892
2.58,-0.0239323820448163
2.585,-0.0240694011842474
2.59,-0.0242076028795271
2.595,-0.0243469955839565
2.6,-0.0244875879389478
2.605,-0.0246293887834569
2.61,-0.0247724071636609
2.615,-0.0249166523429093
2.62,-0.0250621338119736
2.625,-0.0252088612995276
2.63,-0.0253568447830016
2.635,-0.0255060944996438
2.64,-0.0256566209579759
2.645,-0.0258084349494921
2.65,-0.0259615475607521
2.655,-0.0261159701857487
2.66,-0.0262717145386576
2.665,-0.0264287926669254
2.67,-0.0265872169647298
2.675,-0.0267470001867864
2.68,-0.0269081554625915
2.685,-0.0270706963109944
2.69,-0.0272346366552262
2.695,-0.0273999908383133
2.7,-0.0275667736389357
2.705,-0.0277350002877122
2.71,-0.0279046864839501
2.715,-0.0280758484128387
2.72,-0.0282485027631409
2.725,-0.0284226667453666
2.73,-0.0285983581104305
2.735,-0.0287755951688713
2.74,-0.0289543968105485
2.745,-0.0291347825249313
2.75,-0.0293167724219163
2.755,-0.0295003872532483
2.76,-0.0296856484345094
2.765,-0.029872578067745
2.77,-0.0300611989646828
2.775,-0.0302515346706321
2.78,-0.0304436094890157
2.785,-0.0306374485066063
2.79,-0.0308330776194364
2.795,-0.0310305235594572
2.8,-0.0312298139219064
2.805,-0.0314309771934685
2.81,-0.0316340427811863
2.815,-0.0318390410421892
2.82,-0.0320460033142644
2.825,-0.0322549619472368
2.83,-0.0324659503352617
2.835,-0.0326790029499962
2.84,-0.0328941553747006
2.845,-0.0331114443392784
2.85,-0.0333309077563057
2.855,-0.0335525847580574
2.86,-0.0337765157345679
2.865,-0.0340027423727559
2.87,-0.0342313076966326
2.875,-0.0344622561086374
2.88,-0.0346956334321347
2.885,-0.0349314869550873
2.89,-0.035169865474963
2.895,-0.0354108193448817
2.9,-0.0356544005210724
2.905,-0.0359006626116487
2.91,-0.0361496609267435
2.915,-0.0364014525300804
2.92,-0.0366560962919537
2.925,-0.0369136529437272
2.93,-0.0371741851338381
2.935,-0.0374377574853964
2.94,-0.0377044366553973
2.945,-0.0379742913956051
2.95,-0.0382473926151267
2.955,-0.0385238134447916
2.96,-0.0388036293033105
2.965,-0.0390869179653296
2.97,-0.0393737596313767
2.975,-0.0396642369998078
2.98,-0.0399584353407894
2.985,-0.0402564425723534
2.99,-0.0405583493386261
2.995,-0.0408642490902628
3,-0.0411742381671735
