"Freq [GHz]","dB(S(ground_T1,ground_T1)) []"
2,-0.0139115361819474
2.005,-0.0139490564803881
2.01,-0.0139868658180697
2.015,-0.0140249667020475
2.02,-0.014063361647715
2.025,-0.0141020531788378
2.03,-0.0141410438275636
2.035,-0.0141803361344449
2.04,-0.0142199326484668
2.045,-0.0142598359270678
2.05,-0.0143000485361674
2.055,-0.01434057305017
2.06,-0.0143814120520187
2.065,-0.0144225681331923
2.07,-0.0144640438937397
2.075,-0.0145058419423144
2.08,-0.0145479648961809
2.085,-0.0145904153812539
2.09,-0.0146331960321178
2.095,-0.01467630949205
2.1,-0.0147197584130582
2.105,-0.014763545455888
2.11,-0.0148076732900686
2.115,-0.0148521445939318
2.12,-0.0148969620546372
2.125,-0.0149421283681995
2.13,-0.014987646239518
2.135,-0.0150335183824116
2.14,-0.0150797475196356
2.145,-0.0151263363829159
2.15,-0.0151732877129747
2.155,-0.0152206042595693
2.16,-0.015268288781503
2.165,-0.0153163440466765
2.17,-0.015364772832103
2.175,-0.015413577923939
2.18,-0.0154627621175312
2.185,-0.0155123282174149
2.19,-0.0155622790373794
2.195,-0.0156126174004801
2.2,-0.0156633461390689
2.205,-0.0157144680948364
2.21,-0.0157659861188347
2.215,-0.0158179030715098
2.22,-0.015870221822744
2.225,-0.0159229452518754
2.23,-0.0159760762477357
2.235,-0.0160296177086896
2.24,-0.0160835725426532
2.245,-0.0161379436671457
2.25,-0.0161927340093049
2.255,-0.0162479465059349
2.26,-0.0163035841035345
2.265,-0.0163596497583282
2.27,-0.0164161464363052
2.275,-0.0164730771132586
2.28,-0.0165304447748076
2.285,-0.0165882524164425
2.29,-0.0166465030435534
2.295,-0.0167051996714772
2.3,-0.0167643453255163
2.305,-0.0168239430409933
2.31,-0.0168839958632668
2.315,-0.0169445068477831
2.32,-0.0170054790601084
2.325,-0.0170669155759629
2.33,-0.0171288194812609
2.335,-0.017191193872141
2.34,-0.0172540418550167
2.345,-0.0173173665465939
2.35,-0.0173811710739343
2.355,-0.0174454585744677
2.36,-0.0175102321960423
2.365,-0.0175754950969693
2.37,-0.0176412504460413
2.375,-0.0177075014225899
2.38,-0.0177742512165207
2.385,-0.0178415030283383
2.39,-0.0179092600692042
2.395,-0.017977525560961
2.4,-0.018046302736181
2.405,-0.0181155948382065
2.41,-0.0181854051211749
2.415,-0.0182557368500776
2.42,-0.01832659330079
2.425,-0.0183979777601108
2.43,-0.0184698935258061
2.435,-0.0185423439066453
2.44,-0.0186153322224516
2.445,-0.0186888618041298
2.45,-0.0187629359937129
2.455,-0.0188375581444078
2.46,-0.018912731620632
2.465,-0.0189884597980518
2.47,-0.0190647460636312
2.475,-0.0191415938156657
2.48,-0.0192190064638362
2.485,-0.0192969874292326
2.49,-0.0193755401444201
2.495,-0.0194546680534564
2.5,-0.0195343746119545
2.505,-0.0196146632871089
2.51,-0.0196955375577568
2.515,-0.0197770009143991
2.52,-0.0198590568592684
2.525,-0.0199417089063462
2.53,-0.0200249605814286
2.535,-0.0201088154221593
2.54,-0.0201932769780695
2.545,-0.0202783488106348
2.55,-0.0203640344933066
2.555,-0.0204503376115603
2.56,-0.0205372617629452
2.565,-0.0206248105571171
2.57,-0.020712987615902
2.575,-0.0208017965733164
2.58,-0.0208912410756321
2.585,-0.0209813247814151
2.59,-0.0210720513615669
2.595,-0.0211634244993723
2.6,-0.0212554478905477
2.605,-0.0213481252432858
2.61,-0.0214414602782956
2.615,-0.0215354567288593
2.62,-0.0216301183408676
2.625,-0.0217254488728697
2.63,-0.0218214520961269
2.635,-0.0219181317946466
2.64,-0.0220154917652415
2.645,-0.0221135358175608
2.65,-0.0222122677741525
2.655,-0.022311691470505
2.66,-0.0224118107550934
2.665,-0.0225126294894279
2.67,-0.0226141515481018
2.675,-0.0227163808188296
2.68,-0.0228193212025163
2.685,-0.0229229766132857
2.69,-0.0230273509785376
2.695,-0.0231324482389923
2.7,-0.0232382723487431
2.705,-0.023344827275299
2.71,-0.023452116999641
2.715,-0.0235601455162584
2.72,-0.0236689168332196
2.725,-0.0237784349721983
2.73,-0.0238887039685325
2.735,-0.0239997278712786
2.74,-0.02411151074325
2.745,-0.024224056661079
2.75,-0.0243373697152548
2.755,-0.0244514540101817
2.76,-0.0245663136642289
2.765,-0.0246819528097696
2.77,-0.0247983755932534
2.775,-0.0249155861752369
2.78,-0.0250335887304372
2.785,-0.0251523874477927
2.79,-0.0252719865305031
2.795,-0.0253923901960909
2.8,-0.025513602676446
2.805,-0.0256356282178744
2.81,-0.0257584710811587
2.815,-0.0258821355415965
2.82,-0.0260066258890691
2.825,-0.026131946428082
2.83,-0.0262581014778191
2.835,-0.0263850953721928
2.84,-0.0265129324599045
2.845,-0.0266416171044884
2.85,-0.0267711536843648
2.855,-0.0269015465929016
2.86,-0.0270328002384564
2.865,-0.0271649190444374
2.87,-0.0272979074493508
2.875,-0.0274317699068577
2.88,-0.0275665108858287
2.885,-0.0277021348703917
2.89,-0.0278386463599949
2.895,-0.0279760498694482
2.9,-0.0281143499289911
2.905,-0.0282535510843397
2.91,-0.028393657896739
2.915,-0.028534674943017
2.92,-0.028676606815648
2.925,-0.0288194581228011
2.93,-0.0289632334883917
2.935,-0.0291079375521462
2.94,-0.0292535749696462
2.945,-0.0294001504123906
2.95,-0.0295476685678508
2.955,-0.0296961341395257
2.96,-0.0298455518469955
2.965,-0.0299959264259775
2.97,-0.0301472626283918
2.975,-0.030299565222395
2.98,-0.0304528389924631
2.985,-0.0306070887394303
2.99,-0.0307623192805529
2.995,-0.0309185354495628
3,-0.0310757420967299
