"Freq [GHz]","dB(S(ground_T1,ground_T1)) []"
2,-0.0209413567406699
2.005,-0.0210987330225691
2.01,-0.0212570180375553
2.015,-0.0214162193505687
2.02,-0.0215763446069582
2.025,-0.0217374015336065
2.03,-0.0218993979400296
2.035,-0.0220623417195044
2.04,-0.0222262408502341
2.045,-0.0223911033964836
2.05,-0.0225569375097826
2.055,-0.0227237514300913
2.06,-0.0228915534870291
2.065,-0.0230603521010844
2.07,-0.0232301557848557
2.075,-0.0234009731443072
2.08,-0.0235728128800448
2.085,-0.023745683788602
2.09,-0.0239195947637387
2.095,-0.0240945547977751
2.1,-0.0242705729829273
2.105,-0.0244476585126617
2.11,-0.0246258206830818
2.115,-0.0248050688943157
2.12,-0.0249854126519253
2.125,-0.0251668615683552
2.13,-0.0253494253643666
2.135,-0.0255331138705205
2.14,-0.0257179370286613
2.145,-0.0259039048934408
2.15,-0.0260910276338296
2.155,-0.0262793155346991
2.16,-0.0264687789983625
2.165,-0.0266594285461984
2.17,-0.0268512748202488
2.175,-0.0270443285848722
2.18,-0.0272386007283898
2.185,-0.0274341022647877
2.19,-0.0276308443354124
2.195,-0.0278288382107012
2.2,-0.0280280952919474
2.205,-0.0282286271130698
2.21,-0.0284304453424195
2.215,-0.0286335617846068
2.22,-0.0288379883823596
2.225,-0.0290437372183944
2.23,-0.0292508205173313
2.235,-0.0294592506476237
2.24,-0.0296690401235064
2.245,-0.0298802016069998
2.25,-0.03009274790991
2.255,-0.030306691995876
2.26,-0.030522046982441
2.265,-0.0307388261431464
2.27,-0.0309570429096722
2.275,-0.0311767108739779
2.28,-0.0313978437905174
2.285,-0.0316204555784274
2.29,-0.0318445603238092
2.295,-0.0320701722819888
2.3,-0.0322973058798462
2.305,-0.0325259757181555
2.31,-0.0327561965739723
2.315,-0.0329879834030407
2.32,-0.0332213513422564
2.325,-0.0334563157121325
2.33,-0.0336928920193334
2.335,-0.0339310959592208
2.34,-0.034170943418457
2.345,-0.0344124504776173
2.35,-0.0346556334138751
2.355,-0.0349005087036858
2.36,-0.0351470930255468
2.365,-0.0353954032627727
2.37,-0.0356454565063167
2.375,-0.0358972700576385
2.38,-0.0361508614316021
2.385,-0.0364062483594279
2.39,-0.0366634487916764
2.395,-0.0369224809012791
2.4,-0.0371833630866186
2.405,-0.0374461139746459
2.41,-0.0377107524240424
2.415,-0.037977297528439
2.42,-0.03824576861966
2.425,-0.0385161852710441
2.43,-0.0387885673007787
2.435,-0.039062934775318
2.44,-0.0393393080128292
2.445,-0.0396177075866867
2.45,-0.0398981543290271
2.455,-0.040180669334364
2.46,-0.0404652739632355
2.465,-0.0407519898459105
2.47,-0.041040838886169
2.475,-0.0413318432651016
2.48,-0.0416250254450115
2.485,-0.0419204081733248
2.49,-0.0422180144865929
2.495,-0.0425178677145415
2.5,-0.0428199914841818
2.505,-0.0431244097239715
2.51,-0.0434311466680692
2.515,-0.0437402268605966
2.52,-0.0440516751600322
2.525,-0.0443655167436019
2.53,-0.0446817771117946
2.535,-0.0450004820928981
2.54,-0.0453216578476366
2.545,-0.0456453308738494
2.55,-0.0459715280112642
2.555,-0.0463002764463211
2.56,-0.0466316037170867
2.565,-0.0469655377182239
2.57,-0.0473021067060479
2.575,-0.0476413393036575
2.58,-0.0479832645061327
2.585,-0.0483279116858281
2.59,-0.0486753105977366
2.595,-0.0490254913849134
2.6,-0.0493784845840265
2.605,-0.0497343211309469
2.61,-0.0500930323664571
2.615,-0.050454650042015
2.62,-0.0508192063256335
2.625,-0.0511867338078254
2.63,-0.0515572655076513
2.635,-0.0519308348788683
2.64,-0.0523074758161434
2.645,-0.052687222661386
2.65,-0.0530701102101694
2.655,-0.0534561737182497
2.66,-0.0538454489081792
2.665,-0.0542379719760302
2.67,-0.0546337795982104
2.675,-0.0550329089384025
2.68,-0.0554353976545765
2.685,-0.0558412839061376
2.69,-0.0562506063611822
2.695,-0.0566634042038426
2.7,-0.0570797171417727
2.705,-0.0574995854137298
2.71,-0.0579230497972717
2.715,-0.0583501516165964
2.72,-0.0587809327504707
2.725,-0.0592154356402983
2.73,-0.0596537032983222
2.735,-0.0600957793159241
2.74,-0.0605417078720799
2.745,-0.0609915337419361
2.75,-0.0614453023055169
2.755,-0.0619030595565755
2.76,-0.0623648521115626
2.765,-0.0628307272187568
2.77,-0.0633007327675304
2.775,-0.0637749172977527
2.78,-0.0642533300093444
2.785,-0.0647360207719836
2.79,-0.0652230401349586
2.795,-0.0657144393371789
2.8,-0.06621027031734
2.805,-0.0667105857242521
2.81,-0.0672154389273227
2.815,-0.0677248840272058
2.82,-0.0682389758666308
2.825,-0.0687577700413838
2.83,-0.0692813229114697
2.835,-0.0698096916124529
2.84,-0.0703429340669763
2.845,-0.0708811089964526
2.85,-0.0714242759329535
2.855,-0.0719724952312789
2.86,-0.0725258280812238
2.865,-0.0730843365200244
2.87,-0.0736480834450155
2.875,-0.0742171326265012
2.88,-0.0747915487207842
2.885,-0.0753713972834642
2.89,-0.0759567447828929
2.895,-0.0765476586138716
2.9,-0.0771442071115701
2.905,-0.0777464595656522
2.91,-0.0783544862346317
2.915,-0.0789683583604757
2.92,-0.0795881481834011
2.925,-0.0802139289569535
2.93,-0.0808457749633042
2.935,-0.081483761528781
2.94,-0.0821279650396886
2.945,-0.0827784629583273
2.95,-0.0834353338393297
2.955,-0.0840986573462071
2.96,-0.0847685142681963
2.965,-0.0854449865373669
2.97,-0.0861281572460025
2.975,-0.0868181106642706
2.98,-0.0875149322581609
2.985,-0.0882187087077369
2.99,-0.0889295279256666
2.995,-0.0896474790760641
3,-0.0903726525936184
