"Freq [GHz]","dB(S(ground_T1,ground_T1)) []"
2,-0.0466387206978703
2.005,-0.048096886589306
2.01,-0.0496024394710626
2.015,-0.0511585076760467
2.02,-0.0527684280974678
2.025,-0.0544357638434453
2.03,-0.0561643236331516
2.035,-0.0579581831325955
2.04,-0.0598217084537938
2.045,-0.0617595820702808
2.05,-0.0637768314356204
2.055,-0.0658788606300646
2.06,-0.0680714854050627
2.065,-0.0703609720464864
2.07,-0.0727540805367439
2.075,-0.0752581125645174
2.08,-0.0778809650105027
2.085,-0.0806311896300536
2.09,-0.0835180597616428
2.095,-0.0865516450159446
2.1,-0.0897428950480546
2.105,-0.0931037336885651
2.11,-0.0966471649128925
2.115,-0.100387392368786
2.12,-0.104339954466183
2.125,-0.108521877370672
2.13,-0.112951848642756
2.135,-0.117650414743179
2.14,-0.122640206196329
2.145,-0.127946194889818
2.15,-0.133595988813788
2.155,-0.139620170540404
2.16,-0.146052686951449
2.165,-0.152931299189883
2.17,-0.160298103602053
2.175,-0.168200136630066
2.18,-0.1766900793091
2.185,-0.185827080350682
2.19,-0.195677720913937
2.195,-0.206317149294907
2.2,-0.217830420172447
2.205,-0.230314081094099
2.21,-0.243878059031868
2.215,-0.258647912696353
2.22,-0.274767532674961
2.225,-0.292402392425671
2.23,-0.311743480141168
2.235,-0.333012076416094
2.24,-0.356465588092232
2.245,-0.382404708138292
2.25,-0.411182249746399
2.255,-0.443214106598211
2.26,-0.478992929598862
2.265,-0.519105295993648
2.27,-0.564253397439605
2.275,-0.615282614308035
2.28,-0.673216809637462
2.285,-0.739303818100871
2.29,-0.815074495117629
2.295,-0.902419932311693
2.3,-1.00369318725264
2.305,-1.12184433434261
2.31,-1.26060113537996
2.315,-1.4247126158859
2.32,-1.62028000454318
2.325,-1.85520989061107
2.33,-2.13983971392474
2.335,-2.48780853120353
2.34,-2.91728119247023
2.345,-3.4526906217258
2.35,-4.12725791232841
2.355,-4.98671105569076
2.36,-6.09485574671918
2.365,-7.54162402564161
2.37,-9.45089476622444
2.375,-11.9548276998518
2.38,-14.8724675156934
2.385,-16.2518472260186
2.39,-14.199853221609
2.395,-11.356230892697
2.4,-9.05032597819986
2.405,-7.30352019010328
2.41,-5.97664734183105
2.415,-4.95534250072898
2.42,-4.15830978813965
2.425,-3.52823046300087
2.43,-3.02415415735036
2.435,-2.61637893031192
2.44,-2.28306390279955
2.445,-2.00795076500154
2.45,-1.77880061520565
2.455,-1.58630328905129
2.46,-1.42330576246921
2.465,-1.28425986493458
2.47,-1.16482284521957
2.475,-1.06156569863733
2.48,-0.971758230381986
2.485,-0.893209265978046
2.49,-0.824146840384312
2.495,-0.763127614414358
2.5,-0.708967834449946
2.505,-0.660690299371232
2.51,-0.617483314707668
2.515,-0.578668692319904
2.52,-0.543676626640018
2.525,-0.512025836337734
2.53,-0.483307765943065
2.535,-0.457173939081452
2.54,-0.433325774146032
2.545,-0.411506336016906
2.55,-0.391493619164162
2.555,-0.373095049096331
2.56,-0.356142958525952
2.565,-0.340490847533225
2.57,-0.32601027758365
2.575,-0.31258828055423
2.58,-0.300125188202897
2.585,-0.288532806454061
2.59,-0.277732873723964
2.595,-0.267655754214052
2.6,-0.258239326371474
2.605,-0.24942803409416
2.61,-0.241172074157085
2.615,-0.233426698074085
2.62,-0.226151610430839
2.625,-0.219310448819633
2.63,-0.212870333023393
2.635,-0.206801473151091
2.64,-0.201076828110277
2.645,-0.195671807187272
2.65,-0.190564008648211
2.655,-0.185732990220676
2.66,-0.181160067101866
2.665,-0.176828133794779
2.67,-0.172721506621802
2.675,-0.168825784224747
2.68,-0.165127723746816
2.685,-0.161615130718036
2.69,-0.158276760941366
2.695,-0.155102232910512
2.7,-0.152081949489228
2.705,-0.149207027751252
2.71,-0.146469236024814
2.715,-0.143860937309593
2.72,-0.141375038340267
2.725,-0.139004943662522
2.73,-0.136744514166104
2.735,-0.134588029587742
2.74,-0.132530154555799
2.745,-0.130565907799641
2.75,-0.128690634191238
2.755,-0.126899979325268
2.76,-0.125189866377735
2.765,-0.12355647501271
2.77,-0.121996222132655
2.775,-0.120505744290398
2.78,-0.119081881600884
2.785,-0.11772166300821
2.79,-0.116422292779003
2.795,-0.115181138106835
2.8,-0.113995717724309
2.805,-0.112863691430308
2.81,-0.111782850449169
2.815,-0.110751108547103
2.82,-0.10976649383855
2.825,-0.108827141221833
2.83,-0.107931285389432
2.835,-0.107077254363454
2.84,-0.106263463511627
2.845,-0.105488410003344
2.85,-0.104750667669133
2.855,-0.104048882230254
2.86,-0.103381766868264
2.865,-0.102748098107035
2.87,-0.102146711982286
2.875,-0.101576500475831
2.88,-0.101036408193816
2.885,-0.100525429269974
2.89,-0.100042604476618
2.895,-0.0995870185275581
2.9,-0.0991577975584335
2.905,-0.0987541067712484
2.91,-0.0983751482308852
2.915,-0.0980201588025582
2.92,-0.0976884082198391
2.925,-0.09737919727394
2.93,-0.0970918561155728
2.935,-0.0968257426614023
2.94,-0.0965802410977853
2.945,-0.0963547604750283
2.95,-0.0961487333859101
2.955,-0.0959616147227542
2.96,-0.095792880507659
2.965,-0.0956420267910707
2.97,-0.0955085686140543
2.975,-0.0953920390301161
2.98,-0.0952919881826635
2.985,-0.095207982434468
2.99,-0.0951396035458121
2.995,-0.0950864478981871
3,-0.0950481257606632
