"Freq [GHz]","dB(S(ground_T1,ground_T1)) []"
2,-0.018681525924743
2.005,-0.0188038348124792
2.01,-0.0189268830376878
2.015,-0.019050676701203
2.02,-0.0191752219944137
2.025,-0.0193005252010383
2.03,-0.0194265926989544
2.035,-0.0195534309621057
2.04,-0.0196810465624825
2.045,-0.0198094461721816
2.05,-0.0199386365655607
2.055,-0.0200686246214588
2.06,-0.0201994173255451
2.065,-0.0203310217727349
2.07,-0.0204634451697335
2.075,-0.0205966948376838
2.08,-0.0207307782149399
2.085,-0.0208657028599487
2.09,-0.0210014764542906
2.095,-0.021138106805843
2.1,-0.0212756018521114
2.105,-0.0214139696636998
2.11,-0.0215532184479745
2.115,-0.0216933565528992
2.12,-0.0218343924710656
2.125,-0.0219763348439224
2.13,-0.0221191924662471
2.135,-0.0222629742908297
2.14,-0.022407689433426
2.145,-0.0225533471779639
2.15,-0.0226999569820448
2.155,-0.0228475284827644
2.16,-0.0229960715028407
2.165,-0.0231455960571113
2.17,-0.0232961123594004
2.175,-0.0234476308298051
2.18,-0.0236001621023963
2.185,-0.0237537170334142
2.19,-0.0239083067099547
2.195,-0.0240639424591877
2.2,-0.0242206358581876
2.205,-0.0243783987443724
2.21,-0.0245372432266296
2.215,-0.0246971816971822
2.22,-0.0248582268442354
2.225,-0.0250203916654842
2.23,-0.0251836894825667
2.235,-0.0253481339565005
2.24,-0.0255137391042089
2.245,-0.0256805193162552
2.25,-0.0258484893758318
2.255,-0.0260176644791573
2.26,-0.0261880602573883
2.265,-0.0263596928001935
2.27,-0.0265325786811227
2.275,-0.026706734984925
2.28,-0.0268821793370471
2.285,-0.027058929935445
2.29,-0.0272370055849886
2.295,-0.0274164257346586
2.3,-0.0275972105178231
2.305,-0.0277793807959321
2.31,-0.0279629582058874
2.315,-0.0281479652115338
2.32,-0.0283344251596497
2.325,-0.0285223623408898
2.33,-0.0287118020562542
2.335,-0.0289027706895816
2.34,-0.0290952957867837
2.345,-0.0292894061425071
2.35,-0.0294851318950708
2.355,-0.0296825046305582
2.36,-0.0298815574971494
2.365,-0.0300823253308178
2.37,-0.0302848447937583
2.375,-0.0304891545269858
2.38,-0.0306952953188661
2.385,-0.0309033102914885
2.39,-0.0311132451070361
2.395,-0.0313251481967365
2.4,-0.0315390710151972
2.405,-0.031755068323442
2.41,-0.0319731985044063
2.415,-0.0321935239152096
2.42,-0.0324161112812245
2.425,-0.0326410321376704
2.43,-0.0328683633254461
2.435,-0.0330981875489144
2.44,-0.0333305940046602
2.445,-0.0335656790917396
2.45,-0.0338035472156964
2.455,-0.0340443117007465
2.46,-0.0342880958271055
2.465,-0.0345350340133995
2.47,-0.0347852731678272
2.475,-0.0350389742360938
2.48,-0.0352963139795332
2.485,-0.0355574870232692
2.49,-0.0358227082222643
2.495,-0.0360922154027343
2.5,-0.0363662725484387
2.505,-0.0366451735160559
2.51,-0.0369292463821944
2.515,-0.0372188585474683
2.52,-0.0375144227516271
2.525,-0.0378164041898526
2.53,-0.0381253289659188
2.535,-0.0384417941760756
2.54,-0.0387664799918648
2.545,-0.03910016420601
2.55,-0.0394437398297695
2.555,-0.0397982364923955
2.56,-0.0401648466066189
2.565,-0.0405449575464615
2.57,-0.0409401914606072
2.575,-0.0413524548516335
2.58,-0.0417840007397673
2.585,-0.0422375071724868
2.59,-0.042716177145108
2.595,-0.0432238668187973
2.6,-0.0437652514948961
2.605,-0.0443460424785606
2.61,-0.0449732732771342
2.615,-0.0456556813572965
2.62,-0.0464042232307466
2.625,-0.0472327780194653
2.63,-0.0481591212121254
2.635,-0.0492062915469775
2.64,-0.0504045389739783
2.645,-0.0517941458732491
2.65,-0.0534295834550699
2.655,-0.0553857457669727
2.66,-0.0577674724340391
2.665,-0.0607243574492379
2.67,-0.0644741443334209
2.675,-0.0693400627933836
2.68,-0.0758102168512498
2.685,-0.0846286690634381
2.69,-0.0969178215258321
2.695,-0.114267081266493
2.7,-0.138458468624445
2.705,-0.169745458147188
2.71,-0.202020624695341
2.715,-0.219033171444118
2.72,-0.208002744362817
2.725,-0.178178627948322
2.73,-0.146832224325135
2.735,-0.121960305954984
2.74,-0.104091292127751
2.745,-0.0915762582341632
2.75,-0.0827763318704297
2.755,-0.0764992889744611
2.76,-0.0719466254810752
2.765,-0.0685928473517847
2.77,-0.0660898685605808
2.775,-0.0642034261779144
2.78,-0.0627728100976025
2.785,-0.0616855695055136
2.79,-0.0608615000076107
2.795,-0.0602423557128741
2.8,-0.0597851233909079
2.805,-0.0594575449807124
2.81,-0.0592350831252861
2.815,-0.059098829090082
2.82,-0.0590340367964033
2.825,-0.0590290798128514
2.83,-0.0590746986247614
2.835,-0.0591634501246585
2.84,-0.059289299975297
2.845,-0.0594473172564869
2.85,-0.0596334432500358
2.855,-0.0598443145894876
2.86,-0.0600771267112459
2.865,-0.0603295274884155
2.87,-0.0605995336871895
2.875,-0.060885464836701
2.88,-0.0611858904986621
2.885,-0.0614995879310439
2.89,-0.0618255078754109
2.895,-0.0621627467390346
2.9,-0.0625105238447987
2.905,-0.0628681627232154
2.91,-0.0632350756479779
2.915,-0.063610750789334
2.92,-0.0639947414918372
2.925,-0.0643866572850999
2.93,-0.0647861563152868
2.935,-0.0651929389468592
2.94,-0.0656067423326641
2.945,-0.0660273357887285
2.95,-0.0664545168405343
2.955,-0.0668881078318654
2.96,-0.067327953006745
2.965,-0.0677739159906378
2.97,-0.0682258776098705
2.975,-0.0686837339984004
2.98,-0.0691473949496345
2.985,-0.0696167824777473
2.99,-0.0700918295587563
2.995,-0.0705724790261781
3,-0.0710586826000308
