"Freq [GHz]","dB(S(ground_T1,ground_T1)) []"
2,-0.0167410212314888
2.005,-0.0168882744435187
2.01,-0.0170388956440081
2.015,-0.0171930126918618
2.02,-0.0173507592254172
2.025,-0.0175122750117674
2.03,-0.0176777063204014
2.035,-0.0178472063231024
2.04,-0.0180209355222384
2.045,-0.0181990622098101
2.05,-0.018381762959708
2.055,-0.0185692231560692
2.06,-0.0187616375606775
2.065,-0.0189592109228171
2.07,-0.0191621586351748
2.075,-0.019370707439852
2.08,-0.0195850961888676
2.085,-0.019805576664009
2.09,-0.0200324144613868
2.095,-0.0202658899465248
2.1,-0.0205062992865719
2.105,-0.0207539555667059
2.11,-0.0210091899987131
2.115,-0.0212723532305057
2.12,-0.021543816766303
2.125,-0.0218239745082447
2.13,-0.0221132444314341
2.135,-0.0224120704057303
2.14,-0.0227209241791201
2.145,-0.0230403075391851
2.15,-0.0233707546711909
2.155,-0.023712834733346
2.16,-0.0240671546723913
2.165,-0.0244343623054152
2.17,-0.0248151496969068
2.175,-0.0252102568637909
2.18,-0.0256204758451939
2.185,-0.0260466551784365
2.19,-0.0264897048281367
2.195,-0.0269506016214179
2.2,-0.0274303952493178
2.205,-0.0279302149026005
2.21,-0.0284512766195356
2.215,-0.0289948914340529
2.22,-0.0295624744250975
2.225,-0.0301555547826299
2.23,-0.0307757870224519
2.235,-0.031424963501747
2.24,-0.0321050284100083
2.245,-0.032818093437005
2.25,-0.033566455350655
2.255,-0.0343526157547749
2.26,-0.035179303340247
2.265,-0.036049498994581
2.27,-0.0369664641960095
2.275,-0.0379337731908368
2.28,-0.0389553495394455
2.285,-0.0400355077198708
2.29,-0.0411790006023603
2.295,-0.0423910737579581
2.3,-0.0436775277452426
2.305,-0.0450447897387195
2.31,-0.0464999961295283
2.315,-0.0480510880555643
2.32,-0.0497069222185856
2.325,-0.0514773998393248
2.33,-0.0533736172121667
2.335,-0.0554080420799779
2.34,-0.0575947209976325
2.345,-0.0599495240427096
2.35,-0.062490434733041
2.355,-0.0652378949153411
2.36,-0.0682152168186975
2.365,-0.0714490775848636
2.37,-0.0749701156138397
2.375,-0.0788136532972971
2.38,-0.0830205775627885
2.385,-0.0876384186828111
2.39,-0.0927226797999886
2.395,-0.098338485685876
2.4,-0.10456264095007
2.405,-0.111486217488161
2.41,-0.119217831644079
2.415,-0.127887828111375
2.42,-0.137653667042356
2.425,-0.148706923727161
2.43,-0.161282472598405
2.435,-0.175670663975358
2.44,-0.192233651681104
2.445,-0.21142755422112
2.45,-0.233832931687064
2.455,-0.260197300133431
2.46,-0.291495362959852
2.465,-0.329015792992499
2.47,-0.37448859047445
2.475,-0.430275786100089
2.48,-0.499663354545202
2.485,-0.587318968688227
2.49,-0.70002903984887
2.495,-0.847920231868493
2.5,-1.04654856312924
2.505,-1.32059573032134
2.51,-1.71065144007655
2.515,-2.28615298749188
2.52,-3.17117811908623
2.525,-4.5989819196667
2.53,-7.0399624238296
2.535,-11.541550259249
2.54,-17.8183079316292
2.545,-11.8972535427568
2.55,-7.27737479813511
2.555,-4.78184512067413
2.56,-3.32305968050765
2.565,-2.41700779212479
2.57,-1.82581915293259
2.575,-1.42347797659156
2.58,-1.13953812217256
2.585,-0.932794272575891
2.59,-0.778150800274315
2.595,-0.65975733506275
2.6,-0.567270623658856
2.605,-0.493741128109467
2.61,-0.434376110774648
2.615,-0.385792288993402
2.62,-0.345550940377182
2.625,-0.311860919586745
2.63,-0.283384288245016
2.635,-0.259106263425474
2.64,-0.23824643050694
2.645,-0.220197001152901
2.65,-0.204479148166295
2.655,-0.190711642928536
2.66,-0.178588006044562
2.665,-0.167859640177356
2.67,-0.15832322670229
2.675,-0.149811201717038
2.68,-0.1421844833733
2.685,-0.135326864021188
2.69,-0.12914064661366
2.695,-0.123543220343995
2.7,-0.118464351895794
2.705,-0.113844026708286
2.71,-0.109630716463536
2.715,-0.105779979426093
2.72,-0.102253322619661
2.725,-0.0990172713985394
2.73,-0.0960426043633328
2.735,-0.0933037209109847
2.74,-0.0907781158034983
2.745,-0.0884459405670519
2.75,-0.0862896357140834
2.755,-0.0842936210224939
2.76,-0.0824440336353351
2.765,-0.0807285057292566
2.77,-0.0791359750669077
2.775,-0.0776565229916557
2.78,-0.0762812354150131
2.785,-0.0750020831421467
2.79,-0.0738118185213282
2.795,-0.0727038859214268
2.8,-0.0716723439625497
2.805,-0.0707117977687934
2.81,-0.0698173397934622
2.815,-0.0689844979989267
2.82,-0.0682091903644229
2.825,-0.0674876848535226
2.83,-0.0668165641049301
2.835,-0.0661926942199131
2.84,-0.0656131971119017
2.845,-0.0650754259608608
2.85,-0.0645769433801275
2.855,-0.0641155019583252
2.86,-0.063689026885445
2.865,-0.063295600411671
2.87,-0.0629334479212184
2.875,-0.0626009254320351
2.88,-0.062296508356893
2.885,-0.0620187813823881
2.89,-0.0617664293404704
2.895,-0.0615382289628135
2.9,-0.0613330414216834
2.905,-0.0611498055727451
2.91,-0.060987531825287
2.915,-0.0608452965741275
2.92,-0.0607222371351877
2.925,-0.0606175471332839
2.93,-0.0605304722966317
2.935,-0.0604603066175548
2.94,-0.0604063888434643
2.945,-0.0603680992660378
2.95,-0.0603448567800119
2.955,-0.0603361161860662
2.96,-0.0603413657149523
2.965,-0.060360124752411
2.97,-0.060391941746492
2.975,-0.060436392280853
2.98,-0.0604930772991628
2.985,-0.0605616214672804
2.99,-0.0606416716611713
2.995,-0.0607328955697132
3,-0.0608349804025652
