"Freq [GHz]","dB(S(ground_T1,ground_T1)) []"
2,-0.0323313215948565
2.005,-0.0327728250209783
2.01,-0.0332208301135229
2.015,-0.0336754452483359
2.02,-0.0341367812069042
2.025,-0.0346049512546037
2.03,-0.0350800712214598
2.035,-0.0355622595854583
2.04,-0.0360516375585453
2.045,-0.0365483291754213
2.05,-0.0370524613851977
2.055,-0.0375641641460689
2.06,-0.0380835705230948
2.065,-0.038610816789217
2.07,-0.0391460425296334
2.075,-0.0396893907496839
2.08,-0.0402410079863548
2.085,-0.0408010444235619
2.09,-0.0413696540113545
2.095,-0.0419469945892323
2.1,-0.0425332280136594
2.105,-0.0431285202900614
2.11,-0.0437330417093535
2.115,-0.0443469669893197
2.12,-0.0449704754209317
2.125,-0.0456037510198622
2.13,-0.0462469826834267
2.135,-0.046900364353115
2.14,-0.0475640951830126
2.145,-0.0482383797143199
2.15,-0.0489234280562442
2.155,-0.0496194560735142
2.16,-0.0503266855808247
2.165,-0.0510453445445082
2.17,-0.0517756672917036
2.175,-0.0525178947274022
2.18,-0.0532722745596892
2.185,-0.0540390615335237
2.19,-0.0548185176734558
2.195,-0.0556109125356721
2.2,-0.0564165234697849
2.205,-0.0572356358907837
2.21,-0.0580685435616349
2.215,-0.0589155488869814
2.22,-0.0597769632184799
2.225,-0.0606531071722734
2.23,-0.0615443109591795
2.235,-0.0624509147281832
2.24,-0.063373268923836
2.245,-0.0643117346582279
2.25,-0.065266684098203
2.255,-0.0662385008685717
2.26,-0.0672275804720295
2.265,-0.0682343307266345
2.27,-0.0692591722216458
2.275,-0.0703025387926425
2.28,-0.0713648780168582
2.285,-0.0724466517297015
2.29,-0.0735483365635234
2.295,-0.0746704245097457
2.3,-0.0758134235054845
2.305,-0.0769778580459336
2.31,-0.0781642698237862
2.315,-0.0793732183970804
2.32,-0.0806052818869094
2.325,-0.0818610577065517
2.33,-0.0831411633236375
2.335,-0.0844462370570706
2.34,-0.0857769389105466
2.345,-0.0871339514445661
2.35,-0.0885179806890207
2.355,-0.089929757098509
2.36,-0.0913700365526681
2.365,-0.0928396014039941
2.37,-0.0943392615756949
2.375,-0.0958698557123644
2.38,-0.0974322523863716
2.385,-0.0990273513630533
2.39,-0.100656084928054
2.395,-0.102319419280245
2.4,-0.104018355993992
2.405,-0.105753933554748
2.41,-0.107527228972128
2.415,-0.109339359475003
2.42,-0.111191484293415
2.425,-0.113084806532339
2.43,-0.115020575142815
2.435,-0.117000086996178
2.44,-0.119024689067631
2.445,-0.121095780735713
2.45,-0.12321481620478
2.455,-0.125383307057983
2.46,-0.127602824948838
2.465,-0.129875004440002
2.47,-0.132201545998501
2.475,-0.134584219157227
2.48,-0.137024865853374
2.485,-0.139525403955097
2.49,-0.142087830988538
2.495,-0.144714228078309
2.5,-0.147406764115417
2.505,-0.150167700167619
2.51,-0.152999394148413
2.515,-0.15590430576201
2.52,-0.158885001742918
2.525,-0.161944161410309
2.53,-0.165084582558717
2.535,-0.168309187708457
2.54,-0.171621030740834
2.545,-0.175023303945253
2.55,-0.178519345507517
2.555,-0.182112647470827
2.56,-0.185806864203678
2.565,-0.189605821411485
2.57,-0.193513525731905
2.575,-0.197534174957015
2.58,-0.201672168929188
2.585,-0.205932121161366
2.59,-0.210318871236745
2.595,-0.214837498047644
2.6,-0.219493333938319
2.605,-0.224291979822277
2.61,-0.229239321350723
2.615,-0.234341546215553
2.62,-0.239605162677746
2.625,-0.245037019420216
2.63,-0.25064432683305
2.635,-0.256434679849094
2.64,-0.262416082458585
2.645,-0.268596974043641
2.65,-0.274986257686538
2.655,-0.281593330620408
2.66,-0.288428117007086
2.665,-0.295501103244688
2.67,-0.302823376027195
2.675,-0.3104066634004
2.68,-0.318263379082527
2.685,-0.326406670345092
2.69,-0.334850469779233
2.695,-0.343609551306108
2.7,-0.352699590826986
2.705,-0.362137231949764
2.71,-0.371940157274763
2.715,-0.382127165773755
2.72,-0.392718256853658
2.725,-0.403734721760264
2.73,-0.415199243049082
2.735,-0.427136002930856
2.74,-0.439570801389185
2.745,-0.452531185069086
2.75,-0.466046588048856
2.755,-0.480148485735552
2.76,-0.494870563268515
2.765,-0.510248899977645
2.77,-0.526322171626613
2.775,-0.543131872378126
2.78,-0.560722558652756
2.785,-0.579142117318029
2.79,-0.598442060945256
2.795,-0.618677853212833
2.8,-0.639909267922491
2.805,-0.662200785536176
2.81,-0.685622031643428
2.815,-0.710248262342062
2.82,-0.736160902168698
2.825,-0.763448140963017
2.83,-0.792205596904944
2.835,-0.822537053943796
2.84,-0.854555282962896
2.845,-0.888382957314862
2.85,-0.924153674849118
2.855,-0.962013100265525
2.86,-1.00212024360447
2.865,-1.04464889296814
2.87,-1.08978922221332
2.875,-1.13774959742546
2.88,-1.18875860955341
2.885,-1.24306736474417
2.89,-1.30095206877946
2.895,-1.36271694771566
2.9,-1.42869755353369
2.905,-1.49926451152496
2.91,-1.57482777553545
2.915,-1.65584146839935
2.92,-1.74280939834659
2.925,-1.83629135843047
2.93,-1.93691033583785
2.935,-2.04536078231394
2.94,-2.16241812721276
2.945,-2.28894975273357
2.95,-2.42592769931219
2.955,-2.57444343153883
2.96,-2.73572507654
2.965,-2.91115765490534
2.97,-3.10230696971219
2.975,-3.31094801773767
2.98,-3.53909906181886
2.985,-3.78906288929701
2.99,-4.06347733110395
2.995,-4.36537790972517
3,-4.69827664677027
