"Freq [GHz]","dB(S(ground_T1,ground_T1)) []"
2,-0.0162963856615267
2.005,-0.0163854299759339
2.01,-0.0164750267935307
2.015,-0.0165651822766032
2.02,-0.0166559025970578
2.025,-0.0167471939372393
2.03,-0.0168390624907425
2.035,-0.0169315144632289
2.04,-0.0170245560732389
2.045,-0.0171181935530146
2.05,-0.0172124331493118
2.055,-0.0173072811242275
2.06,-0.0174027437560056
2.065,-0.0174988273398883
2.07,-0.0175955381889036
2.075,-0.0176928826347284
2.08,-0.0177908670284931
2.085,-0.0178894977416172
2.09,-0.0179887811666521
2.095,-0.0180887237181047
2.1,-0.0181893318332793
2.105,-0.0182906119731226
2.11,-0.0183925706230553
2.115,-0.0184952142938337
2.12,-0.0185985495223807
2.125,-0.0187025828726529
2.13,-0.0188073209364809
2.135,-0.0189127703344425
2.14,-0.0190189377167078
2.145,-0.0191258297639114
2.15,-0.0192334531880292
2.155,-0.0193418147332304
2.16,-0.0194509211767629
2.165,-0.0195607793298403
2.17,-0.01967139603851
2.175,-0.0197827781845462
2.18,-0.019894932686347
2.185,-0.0200078664998173
2.19,-0.0201215866192782
2.195,-0.0202361000783662
2.2,-0.0203514139509448
2.205,-0.0204675353520145
2.21,-0.0205844714386307
2.215,-0.0207022294108306
2.22,-0.0208208165125561
2.225,-0.020940240032587
2.23,-0.0210605073054848
2.235,-0.021181625712529
2.24,-0.0213036026826659
2.245,-0.0214264456934679
2.25,-0.0215501622720896
2.255,-0.0216747599962321
2.26,-0.0218002464951178
2.265,-0.0219266294504623
2.27,-0.0220539165974688
2.275,-0.0221821157258012
2.28,-0.0223112346805853
2.285,-0.0224412813634284
2.29,-0.0225722637333919
2.295,-0.0227041898080456
2.3,-0.0228370676644601
2.305,-0.0229709054402459
2.31,-0.0231057113345967
2.315,-0.0232414936093135
2.32,-0.023378260589872
2.325,-0.0235160206664694
2.33,-0.0236547822950947
2.335,-0.0237945539985902
2.34,-0.023935344367739
2.345,-0.0240771620623613
2.35,-0.0242200158123827
2.355,-0.0243639144189695
2.36,-0.0245088667556073
2.365,-0.0246548817692501
2.37,-0.0248019684814269
2.375,-0.0249501359893829
2.38,-0.0250993934672308
2.385,-0.0252497501670969
2.39,-0.025401215420288
2.395,-0.0255537986384547
2.4,-0.0257075093147773
2.405,-0.0258623570251597
2.41,-0.0260183514294161
2.415,-0.0261755022724903
2.42,-0.0263338193856662
2.425,-0.0264933126877941
2.43,-0.0266539921865376
2.435,-0.0268158679796095
2.44,-0.026978950256038
2.445,-0.0271432492974238
2.45,-0.0273087754792322
2.455,-0.0274755392720658
2.46,-0.0276435512429779
2.465,-0.0278128220567681
2.47,-0.0279833624773191
2.475,-0.0281551833689168
2.48,-0.028328295697596
2.485,-0.0285027105324916
2.49,-0.0286784390472176
2.495,-0.0288554925212308
2.5,-0.0290338823412232
2.505,-0.0292136200025267
2.51,-0.0293947171105264
2.515,-0.0295771853820879
2.52,-0.029761036646984
2.525,-0.0299462828493587
2.53,-0.030132936049188
2.535,-0.0303210084237505
2.54,-0.0305105122691196
2.545,-0.0307014600016679
2.55,-0.0308938641595818
2.555,-0.0310877374043897
2.56,-0.031283092522506
2.565,-0.0314799424267863
2.57,-0.0316783001581007
2.575,-0.0318781788869171
2.58,-0.0320795919149013
2.585,-0.0322825526765288
2.59,-0.0324870747407203
2.595,-0.0326931718124736
2.6,-0.0329008577345327
2.605,-0.0331101464890539
2.61,-0.0333210521992971
2.615,-0.0335335891313413
2.62,-0.033747771695779
2.625,-0.0339636144494794
2.63,-0.034181132097326
2.635,-0.0344003394939954
2.64,-0.0346212516457228
2.645,-0.0348438837121328
2.65,-0.0350682510080304
2.655,-0.0352943690052599
2.66,-0.0355222533345385
2.665,-0.0357519197873464
2.67,-0.0359833843177951
2.675,-0.0362166630445512
2.68,-0.036451772252747
2.685,-0.0366887283959367
2.69,-0.0369275480980427
2.695,-0.0371682481553461
2.7,-0.0374108455384885
2.705,-0.0376553573944743
2.71,-0.0379018010487231
2.715,-0.0381501940071234
2.72,-0.0384005539581018
2.725,-0.0386528987747337
2.73,-0.038907246516845
2.735,-0.0391636154331536
2.74,-0.0394220239634432
2.745,-0.0396824907407233
2.75,-0.0399450345934302
2.755,-0.04020967454767
2.76,-0.0404764298294329
2.765,-0.0407453198668826
2.77,-0.0410163642926251
2.775,-0.0412895829460376
2.78,-0.0415649958755829
2.785,-0.0418426233411839
2.79,-0.0421224858165787
2.795,-0.0424046039917448
2.8,-0.0426889987753089
2.805,-0.0429756912970062
2.81,-0.0432647029101565
2.815,-0.0435560551941492
2.82,-0.0438497699569752
2.825,-0.0441458692377773
2.83,-0.0444443753094175
2.835,-0.0447453106810805
2.84,-0.0450486981008944
2.845,-0.0453545605585886
2.85,-0.0456629212881537
2.855,-0.0459738037705701
2.86,-0.0462872317365193
2.865,-0.0466032291691502
2.87,-0.0469218203068662
2.875,-0.0472430296461292
2.88,-0.0475668819443165
2.885,-0.0478934022225733
2.89,-0.0482226157687314
2.895,-0.0485545481402123
2.9,-0.0488892251670146
2.905,-0.0492266729546753
2.91,-0.0495669178873016
2.915,-0.0499099866306104
2.92,-0.0502559061350117
2.925,-0.0506047036387222
2.93,-0.0509564066708886
2.935,-0.0513110430547856
2.94,-0.0516686409109916
2.945,-0.0520292286606518
2.95,-0.0523928350287277
2.955,-0.0527594890473132
2.96,-0.0531292200589624
2.965,-0.0535020577200608
2.97,-0.0538780320042331
2.975,-0.0542571732057746
2.98,-0.0546395119431332
2.985,-0.0550250791624086
2.99,-0.0554139061409023
2.995,-0.0558060244906967
3,-0.0562014661622644
