"Freq [GHz]","dB(S(ground_T1,ground_T1)) []"
2,-0.0141574493860453
2.005,-0.0142114382737135
2.01,-0.0142660241327115
2.015,-0.0143212128424698
2.02,-0.0143770103556451
2.025,-0.0144334226994459
2.03,-0.014490455976982
2.035,-0.014548116368663
2.04,-0.0146064101336321
2.045,-0.0146653436112058
2.05,-0.0147249232224055
2.055,-0.0147851554714746
2.06,-0.0148460469474806
2.065,-0.014907604325922
2.07,-0.0149698343704054
2.075,-0.0150327439343504
2.08,-0.0150963399627471
2.085,-0.0151606294939642
2.09,-0.0152256196615968
2.095,-0.0152913176963694
2.1,-0.0153577309280975
2.105,-0.0154248667876807
2.11,-0.0154927328091859
2.115,-0.0155613366319518
2.12,-0.0156306860027794
2.125,-0.0157007887781698
2.13,-0.0157716529266257
2.135,-0.0158432865310237
2.14,-0.015915697791044
2.145,-0.0159888950256908
2.15,-0.0160628866758573
2.155,-0.0161376813069803
2.16,-0.0162132876117738
2.165,-0.016289714413034
2.17,-0.0163669706665317
2.175,-0.0164450654639879
2.18,-0.0165240080361387
2.185,-0.0166038077558915
2.19,-0.0166844741415668
2.195,-0.016766016860259
2.2,-0.0168484457312767
2.205,-0.0169317707296899
2.21,-0.0170160019899981
2.215,-0.017101149809913
2.22,-0.0171872246542265
2.225,-0.0172742371588429
2.23,-0.0173621981348956
2.235,-0.0174511185730261
2.24,-0.0175410096477687
2.245,-0.0176318827221092
2.25,-0.0177237493521452
2.255,-0.0178166212919269
2.26,-0.0179105104984427
2.265,-0.0180054291367697
2.27,-0.0181013895853885
2.275,-0.0181984044416671
2.28,-0.0182964865275225
2.285,-0.0183956488953019
2.29,-0.0184959048337957
2.295,-0.0185972678745085
2.3,-0.0186997517981238
2.305,-0.0188033706411673
2.31,-0.0189081387029141
2.315,-0.0190140705525227
2.32,-0.0191211810364255
2.325,-0.0192294852859537
2.33,-0.0193389987252465
2.335,-0.0194497370794142
2.34,-0.0195617163830052
2.345,-0.0196749529887514
2.35,-0.0197894635766486
2.355,-0.0199052651633286
2.36,-0.0200223751117806
2.365,-0.0201408111414378
2.37,-0.0202605913385884
2.375,-0.0203817341672036
2.38,-0.0205042584801326
2.385,-0.0206281835307262
2.39,-0.0207535289848766
2.395,-0.0208803149335126
2.4,-0.0210085619055472
2.405,-0.0211382908813259
2.41,-0.0212695233065808
2.415,-0.0214022811068896
2.42,-0.0215365867027201
2.425,-0.0216724630250219
2.43,-0.0218099335314438
2.435,-0.0219490222231501
2.44,-0.0220897536623232
2.445,-0.0222321529903294
2.45,-0.0223762459466119
2.455,-0.0225220588883216
2.46,-0.0226696188107489
2.465,-0.022818953368558
2.47,-0.0229700908978729
2.475,-0.0231230604392868
2.48,-0.0232778917617774
2.485,-0.0234346153876241
2.49,-0.0235932626183449
2.495,-0.0237538655617102
2.5,-0.0239164571598935
2.505,-0.0240810712187826
2.51,-0.0242477424385628
2.515,-0.0244165064455701
2.52,-0.0245873998255125
2.525,-0.0247604601581441
2.53,-0.0249357260534061
2.535,-0.0251132371891584
2.54,-0.0252930343505737
2.545,-0.0254751594712515
2.55,-0.0256596556761649
2.555,-0.0258465673265199
2.56,-0.0260359400666378
2.565,-0.0262278208729415
2.57,-0.0264222581051982
2.575,-0.0266193015600727
2.58,-0.0268190025271701
2.585,-0.0270214138476811
2.59,-0.0272265899757466
2.595,-0.0274345870427166
2.6,-0.0276454629244425
2.605,-0.0278592773117864
2.61,-0.0280760917844841
2.615,-0.0282959698885881
2.62,-0.0285189772176617
2.625,-0.0287451814979623
2.63,-0.0289746526777834
2.635,-0.0292074630212459
2.64,-0.0294436872067765
2.645,-0.0296834024304994
2.65,-0.0299266885149105
2.655,-0.0301736280230237
2.66,-0.030424306378439
2.665,-0.0306788119915558
2.67,-0.0309372363924078
2.675,-0.0311996743704114
2.68,-0.03146622412152
2.685,-0.0317369874032075
2.69,-0.0320120696977297
2.695,-0.0322915803842272
2.7,-0.0325756329201484
2.705,-0.0328643450326575
2.71,-0.0331578389205636
2.715,-0.0334562414674985
2.72,-0.0337596844670543
2.725,-0.034068304860612
2.73,-0.0343822449887108
2.735,-0.0347016528568621
2.74,-0.0350266824167029
2.745,-0.0353574938635452
2.75,-0.0356942539514083
2.755,-0.0360371363267222
2.76,-0.0363863218819218
2.765,-0.0367419991303739
2.77,-0.0371043646040267
2.775,-0.0374736232754189
2.78,-0.0378499890057424
2.785,-0.0382336850207952
2.79,-0.038624944416814
2.795,-0.039024010698364
2.8,-0.0394311383505808
2.805,-0.039846593448294
2.81,-0.0402706543047912
2.815,-0.0407036121631133
2.82,-0.0411457719331417
2.825,-0.0415974529779498
2.83,-0.0420589899531421
2.835,-0.0425307337033639
2.84,-0.0430130522203776
2.845,-0.0435063316676053
2.85,-0.0440109774763907
2.855,-0.0445274155198077
2.86,-0.0450560933702249
2.865,-0.0455974816475705
2.87,-0.0461520754657713
2.875,-0.0467203959855782
2.88,-0.0473029920827551
2.885,-0.0479004421415287
2.89,-0.0485133559840429
2.895,-0.049142376947697
2.9,-0.0497881841234081
2.905,-0.0504514947690958
2.91,-0.0511330669141941
2.915,-0.0518337021725111
2.92,-0.0525542487827027
2.925,-0.053295604897414
2.93,-0.0540587221445995
2.935,-0.054844609486837
2.94,-0.055654337407382
2.945,-0.0564890424547477
2.95,-0.0573499321811982
2.955,-0.0582382905143836
2.96,-0.0591554836059214
2.965,-0.0601029662056001
2.97,-0.0610822886156982
2.975,-0.0620951042860967
2.98,-0.0631431781183071
2.985,-0.0642283955545703
2.99,-0.0653527725375708
2.995,-0.0665184664368637
3,-0.0677277880501516
