"Freq [GHz]","dB(S(ground_T1,ground_T1)) []"
2,-0.0230792944638103
2.005,-0.0233123844488179
2.01,-0.0235484029852214
2.015,-0.0237874657245985
2.02,-0.0240296982441921
2.025,-0.0242752371989974
2.03,-0.0245242316362819
2.035,-0.0247768444992646
2.04,-0.0250332543515891
2.045,-0.0252936573604591
2.05,-0.0255582695835612
2.055,-0.0258273296140812
2.06,-0.0261011016491642
2.065,-0.0263798790608363
2.07,-0.0266639885654553
2.075,-0.0269537951086577
2.08,-0.0272497076092142
2.085,-0.0275521857381012
2.09,-0.0278617479508408
2.095,-0.0281789810438584
2.1,-0.0285045515731094
2.105,-0.0288392195595438
2.11,-0.0291838550176752
2.115,-0.0295394579884545
2.12,-0.0299071829473933
2.125,-0.0302883687088511
2.13,-0.030684575279243
2.135,-0.0310976295560705
2.14,-0.0315296823689019
2.145,-0.0319832801743562
2.15,-0.0324614558382796
2.155,-0.0329678444942444
2.16,-0.0335068326496717
2.165,-0.0340837518052211
2.17,-0.0347051322931145
2.175,-0.0353790394907413
2.18,-0.0361155240631001
2.185,-0.0369272320677458
2.19,-0.0378302422460284
2.195,-0.038845230909388
2.2,-0.0399991166158751
2.205,-0.0413274193036897
2.21,-0.0428777022467927
2.215,-0.0447146858541182
2.22,-0.0469279928186942
2.225,-0.0496441155151765
2.23,-0.0530452828803508
2.235,-0.0573997683481676
2.24,-0.063111282677354
2.245,-0.0707997231504106
2.25,-0.0814299067045305
2.255,-0.0964961867880836
2.26,-0.118188873390366
2.265,-0.14908768892616
2.27,-0.189728773461965
2.275,-0.231307796916613
2.28,-0.25045460334488
2.285,-0.231763683852642
2.29,-0.191712803346338
2.295,-0.152880763974193
2.3,-0.123415428690876
2.305,-0.102753403544751
2.31,-0.0884624308530884
2.315,-0.0784731563903202
2.32,-0.0713630520211156
2.325,-0.0662056816727165
2.33,-0.0624006732769816
2.335,-0.0595538352375553
2.34,-0.0574012204496117
2.345,-0.0557622666922015
2.35,-0.0545108122574268
2.355,-0.0535569208208254
2.36,-0.0528352752872947
2.365,-0.0522976197483411
2.37,-0.0519077403737954
2.375,-0.0516380689148736
2.38,-0.0514673428755158
2.385,-0.0513789664368992
2.39,-0.051359844222489
2.395,-0.0513995393734379
2.4,-0.0514896574979718
2.405,-0.0516233902106104
2.41,-0.051795172951729
2.415,-0.0520004256749153
2.42,-0.0522353543330148
2.425,-0.0524967974636128
2.43,-0.0527821065743902
2.435,-0.0530890521055768
2.44,-0.0534157489232821
2.445,-0.0537605968545706
2.45,-0.0541222329003308
2.455,-0.0544994925832191
2.46,-0.0548913784930058
2.465,-0.0552970345410462
2.47,-0.0557157247725993
2.475,-0.0561468158399389
2.48,-0.0565897624328747
2.485,-0.0570440951115249
2.49,-0.0575094101006586
2.495,-0.05798536069376
2.5,-0.0584716499843439
2.505,-0.0589680246966325
2.51,-0.0594742699307851
2.515,-0.0599902046720977
2.52,-0.0605156779409715
2.525,-0.0610505654823658
2.53,-0.0615947669111012
2.535,-0.0621482032438087
2.54,-0.0627108147598398
2.545,-0.0632825591430846
2.55,-0.0638634098643897
2.555,-0.0644533547706699
2.56,-0.0650523948522065
2.565,-0.0656605431639057
2.57,-0.066277823880073
2.575,-0.0669042714651865
2.58,-0.0675399299458619
2.585,-0.0681848522712216
2.59,-0.0688390997507564
2.595,-0.0695027415603
2.6,-0.0701758543080074
2.605,-0.0708585216533657
2.61,-0.0715508339731836
2.615,-0.0722528880692905
2.62,-0.0729647869134234
2.625,-0.0736866394253109
2.63,-0.074418560280497
2.635,-0.0751606697448923
2.64,-0.0759130935334066
2.645,-0.0766759626903421
2.65,-0.0774494134895436
2.655,-0.0782335873524953
2.66,-0.0790286307828327
2.665,-0.0798346953158754
2.67,-0.0806519374820048
2.675,-0.0814805187827806
2.68,-0.0823206056789163
2.685,-0.0831723695892756
2.69,-0.0840359869001537
2.695,-0.0849116389842691
2.7,-0.0857995122288565
2.705,-0.0866997980724351
2.71,-0.0876126930498106
2.715,-0.0885383988449703
2.72,-0.0894771223515457
2.725,-0.0904290757406161
2.73,-0.0913944765356042
2.735,-0.0923735476940924
2.74,-0.093366517696435
2.745,-0.0943736206410364
2.75,-0.0953950963461958
2.755,-0.0964311904585053
2.76,-0.0974821545677286
2.765,-0.098548246328172
2.77,-0.0996297295865645
2.775,-0.100726874516489
2.78,-0.101839957759365
2.785,-0.102969262572165
2.79,-0.104115078981843
2.795,-0.105277703946653
2.8,-0.106457441524481
2.805,-0.107654603048299
2.81,-0.10886950730895
2.815,-0.110102480745394
2.82,-0.111353857642658
2.825,-0.112623980337661
2.83,-0.113913199433147
2.835,-0.115221874020012
2.84,-0.116550371908207
2.845,-0.117899069866586
2.85,-0.119268353871914
2.855,-0.1206586193674
2.86,-0.12207027153106
2.865,-0.123503725554289
2.87,-0.124959406930964
2.875,-0.126437751757526
2.88,-0.127939207044416
2.885,-0.129464231039296
2.89,-0.131013293562545
2.895,-0.132586876355465
2.9,-0.134185473441743
2.905,-0.13580959150267
2.91,-0.137459750266692
2.915,-0.139136482913858
2.92,-0.140840336495818
2.925,-0.142571872371956
2.93,-0.144331666662429
2.935,-0.146120310718696
2.94,-0.147938411612411
2.945,-0.149786592643399
2.95,-0.151665493867536
2.955,-0.153575772645431
2.96,-0.15551810421281
2.965,-0.157493182273523
2.97,-0.159501719616243
2.975,-0.161544448755853
2.98,-0.163622122600664
2.985,-0.16573551514661
2.99,-0.167885422199666
2.995,-0.170072662127749
3,-0.17229807664348
