"Freq [GHz]","dB(S(ground_T1,ground_T1)) []"
2,-0.0144797003015932
2.005,-0.0145503573962245
2.01,-0.014621796656679
2.015,-0.0146940258567462
2.02,-0.0147670528857552
2.025,-0.0148408857506896
2.03,-0.014915532578371
2.035,-0.0149910016176979
2.04,-0.0150673012419301
2.045,-0.0151444399510483
2.05,-0.0152224263741587
2.055,-0.0153012692719723
2.06,-0.0153809775393249
2.065,-0.0154615602077945
2.07,-0.015543026448354
2.075,-0.0156253855741219
2.08,-0.0157086470431558
2.085,-0.0157928204613404
2.09,-0.0158779155853345
2.095,-0.0159639423256146
2.1,-0.0160509107495798
2.105,-0.0161388310847401
2.11,-0.0162277137220066
2.115,-0.0163175692190479
2.12,-0.0164084083037465
2.125,-0.0165002418777491
2.13,-0.0165930810201025
2.135,-0.016686936990994
2.14,-0.0167818212356006
2.145,-0.0168777453880241
2.15,-0.0169747212753391
2.155,-0.0170727609217704
2.16,-0.0171718765529576
2.165,-0.0172720806003516
2.17,-0.0173733857057296
2.175,-0.0174758047258335
2.18,-0.017579350737142
2.185,-0.0176840370407727
2.19,-0.017789877167514
2.195,-0.0178968848830164
2.2,-0.0180050741931087
2.205,-0.0181144593492851
2.21,-0.0182250548543318
2.215,-0.0183368754681293
2.22,-0.018449936213606
2.225,-0.0185642523828773
2.23,-0.0186798395435388
2.235,-0.0187967135451916
2.24,-0.0189148905260856
2.245,-0.0190343869200236
2.25,-0.0191552194634313
2.255,-0.0192774052026454
2.26,-0.0194009615014198
2.265,-0.019525906048651
2.27,-0.0196522568663362
2.275,-0.0197800323177753
2.28,-0.019909251116003
2.285,-0.0200399323325003
2.29,-0.0201720954061521
2.295,-0.020305760152486
2.3,-0.0204409467731859
2.305,-0.0205776758659134
2.31,-0.0207159684344222
2.315,-0.020855845898981
2.32,-0.0209973301071438
2.325,-0.0211404433448208
2.33,-0.0212852083477434
2.335,-0.0214316483132451
2.34,-0.0215797869124574
2.345,-0.0217296483028585
2.35,-0.0218812571412545
2.355,-0.0220346385971553
2.36,-0.0221898183665976
2.365,-0.0223468226864101
2.37,-0.022505678348936
2.375,-0.0226664127172602
2.38,-0.0228290537409166
2.385,-0.0229936299721192
2.39,-0.0231601705825419
2.395,-0.0233287053806432
2.4,-0.0234992648295875
2.405,-0.0236718800657638
2.41,-0.023846582917919
2.415,-0.0240234059269642
2.42,-0.024202382366443
2.425,-0.0243835462636985
2.43,-0.0245669324217947
2.435,-0.0247525764421676
2.44,-0.0249405147480817
2.445,-0.0251307846089063
2.45,-0.0253234241652447
2.455,-0.0255184724549544
2.46,-0.025715969440084
2.465,-0.0259159560347722
2.47,-0.0261184741341725
2.475,-0.0263235666443708
2.48,-0.0265312775134407
2.485,-0.0267416517636026
2.49,-0.026954735524557
2.495,-0.0271705760680536
2.5,-0.0273892218437437
2.505,-0.0276107225163511
2.51,-0.027835129004249
2.515,-0.028062493519469
2.52,-0.0282928696092298
2.525,-0.0285263121990561
2.53,-0.02876287763751
2.535,-0.0290026237426657
2.54,-0.0292456098503788
2.545,-0.0294918968644023
2.55,-0.0297415473084794
2.555,-0.0299946253804732
2.56,-0.0302511970086231
2.565,-0.0305113299100391
2.57,-0.0307750936515202
2.575,-0.0310425597128156
2.58,-0.0313138015524314
2.585,-0.0315888946761061
2.59,-0.0318679167080701
2.595,-0.0321509474652342
2.6,-0.0324380690344306
2.605,-0.0327293658528541
2.61,-0.0330249247918579
2.615,-0.0333248352442645
2.62,-0.0336291892153606
2.625,-0.0339380814177377
2.63,-0.0342516093701973
2.635,-0.0345698735008857
2.64,-0.0348929772549059
2.645,-0.0352210272065566
2.65,-0.0355541331765338
2.655,-0.0358924083542403
2.66,-0.0362359694255169
2.665,-0.0365849367060676
2.67,-0.0369394342808425
2.675,-0.0372995901497197
2.68,-0.0376655363797528
2.685,-0.038037409264419
2.69,-0.0384153494901259
2.695,-0.0387995023104341
2.7,-0.0391900177283772
2.705,-0.0395870506873058
2.71,-0.0399907612707262
2.715,-0.0404013149116024
2.72,-0.0408188826116558
2.725,-0.0412436411711726
2.73,-0.0416757734299526
2.735,-0.0421154685199566
2.74,-0.042562922130338
2.745,-0.0430183367855743
2.75,-0.0434819221373521
2.755,-0.0439538952711075
2.76,-0.0444344810279745
2.765,-0.0449239123430354
2.77,-0.0454224306008806
2.775,-0.0459302860094256
2.78,-0.0464477379930782
2.785,-0.0469750556064301
2.79,-0.0475125179696559
2.795,-0.0480604147269735
2.8,-0.0486190465295159
2.805,-0.0491887255441375
2.81,-0.0497697759897361
2.815,-0.0503625347028074
2.82,-0.0509673517340403
2.825,-0.0515845909779276
2.83,-0.0522146308374542
2.835,-0.0528578649261296
2.84,-0.0535147028097882
2.845,-0.0541855707906498
2.85,-0.0548709127365264
2.855,-0.0555711909580541
2.86,-0.0562868871371861
2.865,-0.0570185033103696
2.87,-0.0577665629100925
2.875,-0.0585316118687872
2.88,-0.0593142197893612
2.885,-0.0601149811869767
2.89,-0.0609345168070209
2.895,-0.061773475024681
2.9,-0.0626325333318681
2.905,-0.0635123999177762
2.91,-0.0644138153498126
2.915,-0.0653375543622382
2.92,-0.0662844277604275
2.925,-0.0672552844492886
2.93,-0.0682510135951901
2.935,-0.0692725469314458
2.94,-0.0703208612182588
2.945,-0.0713969808690944
2.95,-0.0725019807562922
2.955,-0.0736369892100547
2.96,-0.0748031912260416
2.965,-0.0760018318982572
2.97,-0.0772342200953836
2.975,-0.0785017324004014
2.98,-0.0798058173351127
2.985,-0.0811479998932477
2.99,-0.0825298864080185
2.995,-0.083953169782484
3,-0.0854196351137541
