"Freq [GHz]","dB(S(ground_T1,ground_T1)) []"
2,-0.0145947571175868
2.005,-0.0146505534924623
2.01,-0.0147067710688269
2.015,-0.0147634143876882
2.02,-0.0148204879867588
2.025,-0.0148779964007917
2.03,-0.0149359441619021
2.035,-0.0149943357999279
2.04,-0.0150531758427344
2.045,-0.0151124688165673
2.05,-0.015172219246388
2.055,-0.0152324316561997
2.06,-0.0152931105693987
2.065,-0.0153542605091068
2.07,-0.0154158859985061
2.075,-0.0154779915611934
2.08,-0.0155405817215031
2.085,-0.0156036610048674
2.09,-0.0156672339381472
2.095,-0.0157313050499913
2.1,-0.0157958788711664
2.105,-0.0158609599349146
2.11,-0.0159265527773024
2.115,-0.0159926619375662
2.12,-0.0160592919584691
2.125,-0.0161264473866519
2.13,-0.0161941327729874
2.135,-0.016262352672934
2.14,-0.0163311116469023
2.145,-0.0164004142606045
2.15,-0.0164702650854201
2.155,-0.016540668698763
2.16,-0.0166116296844375
2.165,-0.0166831526330133
2.17,-0.0167552421421872
2.175,-0.0168279028171594
2.18,-0.016901139271003
2.185,-0.0169749561250373
2.19,-0.0170493580092044
2.195,-0.0171243495624533
2.2,-0.0171999354331189
2.205,-0.0172761202792933
2.21,-0.0173529087692284
2.215,-0.0174303055817138
2.22,-0.017508315406471
2.225,-0.0175869429445399
2.23,-0.0176661929086822
2.235,-0.0177460700237714
2.24,-0.0178265790271945
2.245,-0.0179077246692631
2.25,-0.0179895117135978
2.255,-0.0180719449375619
2.26,-0.0181550291326552
2.265,-0.018238769104932
2.27,-0.0183231696754139
2.275,-0.0184082356805233
2.28,-0.0184939719724813
2.285,-0.0185803834197516
2.29,-0.0186674749074717
2.295,-0.0187552513378619
2.3,-0.0188437176306827
2.305,-0.0189328787236609
2.31,-0.0190227395729339
2.315,-0.0191133051534935
2.32,-0.0192045804596328
2.325,-0.0192965705053907
2.33,-0.0193892803250288
2.335,-0.0194827149734541
2.34,-0.0195768795267143
2.345,-0.0196717790824439
2.35,-0.0197674187603338
2.355,-0.019863803702611
2.36,-0.0199609390745085
2.365,-0.0200588300647532
2.37,-0.0201574818860366
2.375,-0.0202568997755145
2.38,-0.0203570889952947
2.385,-0.0204580548329318
2.39,-0.0205598026019312
2.395,-0.0206623376422409
2.4,-0.0207656653207812
2.405,-0.0208697910319363
2.41,-0.0209747201980819
2.415,-0.0210804582701069
2.42,-0.0211870107279311
2.425,-0.0212943830810398
2.43,-0.0214025808690327
2.435,-0.0215116096621282
2.44,-0.021621475061747
2.445,-0.0217321827010312
2.45,-0.0218437382454165
2.455,-0.0219561473931789
2.46,-0.0220694158759981
2.465,-0.0221835494595374
2.47,-0.0222985539440058
2.475,-0.0224144351647336
2.48,-0.0225311989927702
2.485,-0.0226488513354551
2.49,-0.0227673981370327
2.495,-0.0228868453792234
2.5,-0.0230071990818553
2.505,-0.0231284653034575
2.51,-0.0232506501418885
2.515,-0.0233737597349415
2.52,-0.0234978002609814
2.525,-0.0236227779395733
2.53,-0.0237486990321357
2.535,-0.0238755698425576
2.54,-0.0240033967178683
2.545,-0.0241321860488919
2.55,-0.0242619442709021
2.555,-0.0243926778642946
2.56,-0.0245243933552624
2.565,-0.0246570973164784
2.57,-0.024790796367774
2.575,-0.024925497176845
2.58,-0.0250612064599442
2.585,-0.0251979309825834
2.59,-0.0253356775602634
2.595,-0.025474453059171
2.6,-0.0256142643969324
2.605,-0.0257551185433225
2.61,-0.0258970225210207
2.615,-0.026039983406351
2.62,-0.0261840083300428
2.625,-0.0263291044779906
2.63,-0.02647527909202
2.635,-0.0266225394706721
2.64,-0.0267708929699785
2.645,-0.0269203470042581
2.65,-0.0270709090469199
2.655,-0.0272225866312594
2.66,-0.0273753873512861
2.665,-0.0275293188625365
2.67,-0.0276843888829077
2.675,-0.0278406051934966
2.68,-0.027997975639448
2.685,-0.0281565081308055
2.69,-0.0283162106433775
2.695,-0.0284770912196146
2.7,-0.0286391579694733
2.705,-0.0288024190713213
2.71,-0.0289668827728289
2.715,-0.0291325573918698
2.72,-0.0292994513174466
2.725,-0.0294675730106083
2.73,-0.0296369310053867
2.735,-0.0298075339097234
2.74,-0.0299793904064555
2.745,-0.0301525092542374
2.75,-0.0303268992885355
2.755,-0.0305025694226034
2.76,-0.0306795286484632
2.765,-0.0308577860379213
2.77,-0.0310373507435538
2.775,-0.0312182319997513
2.78,-0.0314004391237288
2.785,-0.0315839815165728
2.79,-0.0317688686642975
2.795,-0.0319551101388873
2.8,-0.0321427155993873
2.805,-0.0323316947929712
2.81,-0.0325220575560425
2.815,-0.0327138138153288
2.82,-0.0329069735889992
2.825,-0.033101546987796
2.83,-0.0332975442161586
2.835,-0.0334949755733868
2.84,-0.0336938514547864
2.845,-0.0338941823528418
2.85,-0.0340959788584116
2.855,-0.0342992516619044
2.86,-0.0345040115544977
2.865,-0.0347102694293582
2.87,-0.0349180362828564
2.875,-0.0351273232158352
2.88,-0.0353381414348362
2.885,-0.035550502253398
2.89,-0.0357644170933124
2.895,-0.0359798974859372
2.9,-0.0361969550734837
2.905,-0.0364156016103597
2.91,-0.036635848964488
2.915,-0.0368577091186555
2.92,-0.0370811941718761
2.925,-0.0373063163407701
2.93,-0.0375330879609443
2.935,-0.0377615214883925
2.94,-0.0379916295009341
2.945,-0.0382234246996124
2.95,-0.0384569199101682
2.955,-0.0386921280844834
2.96,-0.0389290623020682
2.965,-0.0391677357715425
2.97,-0.0394081618321416
2.975,-0.0396503539552482
2.98,-0.039894325745915
2.985,-0.0401400909444183
2.99,-0.0403876634278414
2.995,-0.0406370572116401
3,-0.0408882864512524
