"Freq [GHz]","dB(S(ground_T1,ground_T1)) []"
2,-0.379320107594244
2.005,-0.334664220987369
2.01,-0.297895767229632
2.015,-0.267269776451178
2.02,-0.241495926240848
2.025,-0.219604421044511
2.03,-0.200855520526011
2.035,-0.184677329675867
2.04,-0.170622260002383
2.045,-0.158336058412568
2.05,-0.14753544329189
2.055,-0.137991730716666
2.06,-0.129518691948103
2.065,-0.121963441360554
2.07,-0.115199522801467
2.075,-0.109121609983245
2.08,-0.103641405139762
2.085,-0.0986844365938489
2.09,-0.0941875372728016
2.095,-0.0900968437947815
2.1,-0.0863661969508259
2.105,-0.0829558541984412
2.11,-0.0798314465381257
2.115,-0.076963128180894
2.12,-0.0743248793408074
2.125,-0.0718939314302264
2.13,-0.0696502906957541
2.135,-0.0675763414814891
2.14,-0.0656565142553315
2.145,-0.0638770065838313
2.15,-0.0622255476115252
2.155,-0.0606911984544656
2.16,-0.0592641823759309
2.165,-0.05793573976585
2.17,-0.0566980038629602
2.175,-0.055543893892019
2.18,-0.0544670228775583
2.185,-0.0534616178711052
2.19,-0.0525224507142776
2.195,-0.0516447777739806
2.2,-0.0508242873425534
2.205,-0.0500570536063924
2.21,-0.0493394962600294
2.215,-0.0486683449863867
2.22,-0.0480406081428756
2.225,-0.0474535450924161
2.23,-0.0469046417012378
2.235,-0.0463915885949955
2.24,-0.0459122618229895
2.245,-0.0454647056297679
2.25,-0.0450471170749686
2.255,-0.0446578322776356
2.26,-0.0442953140913948
2.265,-0.0439581410424176
2.27,-0.0436449973841011
2.275,-0.0433546641411407
2.28,-0.0430860110318244
2.285,-0.0428379891712688
2.29,-0.0426096244702823
2.295,-0.042400011654959
2.3,-0.0422083088410272
2.305,-0.0420337326048192
2.31,-0.0418755534995045
2.315,-0.0417330919711449
2.32,-0.041605714634308
2.325,-0.0414928308714545
2.33,-0.0413938897243586
2.335,-0.0413083770492201
2.34,-0.0412358129102372
2.345,-0.0411757491890854
2.35,-0.041127767390155
2.355,-0.0410914766234647
2.36,-0.0410665117490489
2.365,-0.0410525316682938
2.37,-0.0410492177491255
2.375,-0.04105627237326
2.38,-0.0410734175949282
2.385,-0.0411003939014471
2.39,-0.04113695906704
2.395,-0.0411828870920043
2.4,-0.0412379672201888
2.405,-0.0413020030283143
2.41,-0.0413748115813079
2.415,-0.0414562226483702
2.42,-0.0415460779749048
2.425,-0.041644230605969
2.43,-0.0417505442572259
2.435,-0.0418648927297246
2.44,-0.041987159365226
2.445,-0.0421172365389833
2.45,-0.0422550251872257
2.455,-0.0424004343667885
2.46,-0.0425533808445384
2.465,-0.0427137887144944
2.47,-0.0428815890406323
2.475,-0.0430567195236117
2.48,-0.0432391241897587
2.485,-0.0434287531007396
2.49,-0.0436255620826241
2.495,-0.0438295124729242
2.5,-0.044040570884527
2.505,-0.0442587089853596
2.51,-0.0444839032927981
2.515,-0.0447161349819092
2.52,-0.0449553897066218
2.525,-0.0452016574330664
2.53,-0.0454549322843383
2.535,-0.0457152123960017
2.54,-0.0459824997817077
2.545,-0.0462568002083527
2.55,-0.0465381230802366
2.555,-0.0468264813317057
2.56,-0.047121891327867
2.565,-0.0474243727728809
2.57,-0.0477339486254849
2.575,-0.0480506450213935
2.58,-0.0483744912021867
2.585,-0.0487055194504092
2.59,-0.049043765030582
2.595,-0.0493892661358751
2.6,-0.0497420638401595
2.605,-0.0501022020552264
2.61,-0.0504697274929974
2.615,-0.0508446896324532
2.62,-0.0512271406911838
2.625,-0.0516171356013453
2.63,-0.0520147319898831
2.635,-0.0524199901628948
2.64,-0.0528329730939917
2.645,-0.0532537464165444
2.65,-0.0536823784197153
2.655,-0.0541189400481887
2.66,-0.0545635049054859
2.665,-0.0550161492608215
2.67,-0.0554769520594139
2.675,-0.0559459949361853
2.68,-0.0564233622328134
2.685,-0.0569091410180895
2.69,-0.0574034211115198
2.695,-0.0579062951101834
2.7,-0.0584178584187646
2.705,-0.0589382092827986
2.71,-0.0594674488250787
2.715,-0.0600056810852197
2.72,-0.0605530130624107
2.725,-0.0611095547613211
2.73,-0.0616754192411781
2.735,-0.0622507226680586
2.74,-0.0628355843703749
2.745,-0.0634301268976123
2.75,-0.0640344760823094
2.755,-0.0646487611053824
2.76,-0.0652731145647492
2.765,-0.0659076725473532
2.77,-0.066552574704645
2.775,-0.0672079643315102
2.78,-0.0678739884487691
2.785,-0.0685507978893103
2.79,-0.0692385473878347
2.795,-0.0699373956744339
2.8,-0.0706475055719386
2.805,-0.0713690440972071
2.81,-0.0721021825664142
2.815,-0.0728470967044226
2.82,-0.0736039667583564
2.825,-0.0743729776154807
2.83,-0.0751543189254738
2.835,-0.0759481852272097
2.84,-0.0767547760802143
2.845,-0.0775742962008685
2.85,-0.0784069556034924
2.855,-0.079252969746514
2.86,-0.0801125596837809
2.865,-0.0809859522211989
2.87,-0.0818733800789048
2.875,-0.0827750820590569
2.88,-0.0836913032194481
2.885,-0.0846222950531499
2.89,-0.0855683156743254
2.895,-0.0865296300104279
2.9,-0.0875065100010008
2.905,-0.0884992348032571
2.91,-0.0895080910046705
2.915,-0.090533372842827
2.92,-0.091575382432748
2.925,-0.0926344300019229
2.93,-0.0937108341333498
2.935,-0.0948049220167999
2.94,-0.0959170297086307
2.945,-0.0970475024003837
2.95,-0.0981966946965247
2.955,-0.0993649709015853
2.96,-0.100552705317076
2.965,-0.10176028254845
2.97,-0.102988097822541
2.975,-0.104236557315772
2.98,-0.105506078493555
2.985,-0.106797090461255
2.99,-0.10811003432714
2.995,-0.109445363577727
3,-0.110803544465986
