"Freq [GHz]","dB(S(ground_T1,ground_T1)) []"
2,-0.0307278003896428
2.005,-0.0311715215061543
2.01,-0.0316251805957718
2.015,-0.0320889714104796
2.02,-0.0325630937352459
2.025,-0.033047753649832
2.03,-0.03354316380126
2.035,-0.0340495436874639
2.04,-0.0345671199527029
2.045,-0.0350961266953346
2.05,-0.0356368057886287
2.055,-0.0361894072152677
2.06,-0.0367541894162583
2.065,-0.03733141965504
2.07,-0.037921374397578
2.075,-0.038524339709294
2.08,-0.0391406116697532
2.085,-0.0397704968060572
2.09,-0.0404143125459538
2.095,-0.0410723876917551
2.1,-0.0417450629162021
2.105,-0.042432691281473
2.11,-0.0431356387826491
2.115,-0.0438542849169895
2.12,-0.0445890232804693
2.125,-0.0453402621931204
2.13,-0.0461084253548416
2.135,-0.0468939525333831
2.14,-0.0476973002864033
2.145,-0.0485189427195548
2.15,-0.0493593722827126
2.155,-0.0502191006065977
2.16,-0.0510986593821648
2.165,-0.0519986012853553
2.17,-0.0529195009498822
2.175,-0.0538619559909985
2.18,-0.0548265880833445
2.185,-0.055814044096177
2.19,-0.0568249972895452
2.195,-0.057860148575216
2.2,-0.0589202278463699
2.205,-0.0600059953804561
2.21,-0.061118243319848
2.215,-0.0622577972352827
2.22,-0.0634255177774221
2.225,-0.0646223024223258
2.23,-0.0658490873169187
2.235,-0.0671068492311312
2.24,-0.0683966076237853
2.245,-0.0697194268298913
2.25,-0.0710764183775383
2.255,-0.0724687434432608
2.26,-0.0738976154553952
2.265,-0.075364302855679
2.27,-0.0768701320301734
2.275,-0.0784164904214529
2.28,-0.0800048298349333
2.285,-0.081636669953289
2.29,-0.0833136020739722
2.295,-0.0850372930861494
2.3,-0.0868094897046335
2.305,-0.0886320229799132
2.31,-0.0905068131049463
2.315,-0.092435874541136
2.32,-0.094421321487801
2.325,-0.0964653737215929
2.33,-0.0985703628345629
2.335,-0.100738738902078
2.34,-0.102973077614608
2.345,-0.105276087910384
2.35,-0.107650620149273
2.355,-0.110099674871883
2.36,-0.112626412191972
2.365,-0.11523416187461
2.37,-0.117926434157567
2.375,-0.120706931378731
2.38,-0.123579560478351
2.385,-0.126548446451616
2.39,-0.1296179468343
2.395,-0.132792667312446
2.4,-0.136077478556
2.405,-0.139477534386409
2.41,-0.142998291399231
2.415,-0.146645530175369
2.42,-0.150425378228169
2.425,-0.154344334849162
2.43,-0.158409298032377
2.435,-0.162627593676391
2.44,-0.167007007284772
2.445,-0.171555818409716
2.45,-0.176282838110619
2.455,-0.181197449729803
2.46,-0.186309653321612
2.465,-0.191630114109563
2.47,-0.197170215389543
2.475,-0.202942116345841
2.48,-0.208958815302062
2.485,-0.215234218991393
2.49,-0.22178321850151
2.495,-0.228621772629647
2.5,-0.235766999474675
2.505,-0.24323727719677
2.51,-0.251052354993552
2.515,-0.259233475476612
2.52,-0.267803509786548
2.525,-0.276787106961225
2.53,-0.286210859274426
2.535,-0.296103485494446
2.54,-0.306496034279544
2.545,-0.317422110234981
2.55,-0.328918125511786
2.555,-0.341023580237914
2.56,-0.353781375547931
2.565,-0.367238163528742
2.57,-0.381444739039428
2.575,-0.39645647910884
2.58,-0.412333836483993
2.585,-0.429142894917599
2.59,-0.446955994971615
2.595,-0.465852440506837
2.6,-0.485919297665157
2.605,-0.507252300077253
2.61,-0.529956876299452
2.615,-0.554149318166407
2.62,-0.579958111921936
2.625,-0.60752545775638
2.63,-0.637009007853711
2.635,-0.668583858379001
2.64,-0.702444837191509
2.645,-0.738809136662824
2.65,-0.777919350073341
2.655,-0.820046980969953
2.66,-0.865496507982083
2.665,-0.914610103387713
2.67,-0.967773122782038
2.675,-1.02542050625132
2.68,-1.08804425938862
2.685,-1.15620221641958
2.69,-1.23052832902899
2.695,-1.31174477494887
2.7,-1.40067624222335
2.705,-1.4982668211876
2.71,-1.6056000303588
2.715,-1.72392261966564
2.72,-1.8546729415794
2.725,-1.99951486728864
2.73,-2.16037846468372
2.735,-2.33950896746848
2.74,-2.53952597986801
2.745,-2.7634954242298
2.75,-3.01501751861916
2.755,-3.29833517540114
2.76,-3.61846880476037
2.765,-3.98138583906247
2.77,-4.39421672880369
2.775,-4.86553418199088
2.78,-5.4057195185778
2.785,-6.02744915676866
2.79,-6.74634290218207
2.795,-7.58181198583818
2.8,-8.55808374032882
2.805,-9.70509890121872
2.81,-11.0578839110365
2.815,-12.6488929632328
2.82,-14.4728743090408
2.825,-16.359878007954
2.83,-17.6898739700408
2.835,-17.5495568170372
2.84,-16.0725327706907
2.845,-14.1983224251983
2.85,-12.4414431233474
2.855,-10.9231526619201
2.86,-9.63585540317822
2.865,-8.54505986621794
2.87,-7.61635453656514
2.875,-6.82089779755139
2.88,-6.13552255407532
2.885,-5.54174158883931
2.89,-5.02472685404089
2.895,-4.5724827189116
2.9,-4.17521682937101
2.905,-3.82486797311774
2.91,-3.51475034058375
2.915,-3.23928253243479
2.92,-2.99377840239212
2.925,-2.77428351265011
2.93,-2.57744572268404
2.935,-2.40041171056267
2.94,-2.2407434824579
2.945,-2.09635049045714
2.95,-1.9654340778
2.955,-1.84644175549792
2.96,-1.73802938471475
2.965,-1.63902976114884
2.97,-1.54842641479188
2.975,-1.4653316803808
2.98,-1.38896828083247
2.985,-1.31865381205403
2.99,-1.2537876327668
2.995,-1.19383975461002
3,-1.13834140113218
