"Freq [GHz]","dB(S(ground_T1,ground_T1)) []"
2,-0.0208271443987512
2.005,-0.0210305345232238
2.01,-0.0212366922985368
2.015,-0.0214456524766864
2.02,-0.0216574507185999
2.025,-0.0218721236157881
2.03,-0.0220897087127115
2.035,-0.0223102445298445
2.04,-0.0225337705874895
2.045,-0.0227603274303764
2.05,-0.0229899566530524
2.055,-0.023222700926093
2.06,-0.023458604023194
2.065,-0.0236977108491212
2.07,-0.0239400674686122
2.075,-0.0241857211362083
2.08,-0.0244347203270983
2.085,-0.0246871147689658
2.09,-0.0249429554749368
2.095,-0.0252022947775914
2.1,-0.0254651863641622
2.105,-0.0257316853128993
2.11,-0.0260018481306824
2.115,-0.026275732791921
2.12,-0.0265533987787867
2.125,-0.0268349071228424
2.13,-0.0271203204480985
2.135,-0.0274097030155883
2.14,-0.0277031207695038
2.145,-0.0280006413849397
2.15,-0.0283023343173539
2.155,-0.0286082708537676
2.16,-0.0289185241658224
2.165,-0.0292331693647237
2.17,-0.0295522835581987
2.175,-0.0298759459095142
2.18,-0.0302042376986775
2.185,-0.0305372423858814
2.19,-0.0308750456773128
2.195,-0.0312177355934311
2.2,-0.0315654025398161
2.205,-0.0319181393806799
2.21,-0.032276041515229
2.215,-0.0326392069569379
2.22,-0.0330077364158875
2.225,-0.0333817333843426
2.23,-0.0337613042256892
2.235,-0.034146558266893
2.24,-0.0345376078946576
2.245,-0.0349345686554772
2.25,-0.0353375593597344
2.255,-0.0357467021900801
2.26,-0.0361621228143099
2.265,-0.0365839505029507
2.27,-0.0370123182517897
2.275,-0.0374473629096535
2.28,-0.0378892253116578
2.285,-0.0383380504182568
2.29,-0.0387939874604128
2.295,-0.0392571900911787
2.3,-0.0397278165441198
2.305,-0.0402060297989079
2.31,-0.0406919977545295
2.315,-0.0411858934105509
2.32,-0.0416878950569191
2.325,-0.042198186472825
2.33,-0.0427169571351593
2.335,-0.0432444024372132
2.34,-0.0437807239182328
2.345,-0.0443261295045693
2.35,-0.0448808337631614
2.355,-0.0454450581682198
2.36,-0.0460190313820157
2.365,-0.0466029895507444
2.37,-0.047197176616586
2.375,-0.0478018446471403
2.38,-0.048417254183536
2.385,-0.0490436746086669
2.39,-0.0496813845371268
2.395,-0.0503306722286075
2.4,-0.050991836026678
2.405,-0.0516651848251213
2.41,-0.0523510385641853
2.415,-0.0530497287594412
2.42,-0.0537615990662087
2.425,-0.054487005882865
2.43,-0.0552263189968314
2.435,-0.055979922277374
2.44,-0.0567482144200353
2.445,-0.0575316097480693
2.45,-0.0583305390769367
2.455,-0.0591454506488851
2.46,-0.0599768111455069
2.465,-0.0608251067873743
2.47,-0.061690844531194
2.475,-0.0625745533765007
2.48,-0.0634767857957967
2.485,-0.0643981193042541
2.49,-0.0653391581877065
2.495,-0.0663005354108317
2.5,-0.0672829147311562
2.505,-0.068286993048983
2.51,-0.0693135030287958
2.515,-0.0703632160342029
2.52,-0.0714369454264232
2.525,-0.0725355502859338
2.53,-0.0736599396287881
2.535,-0.0748110772034439
2.54,-0.0759899869719227
2.545,-0.077197759401135
2.55,-0.0784355587176667
2.555,-0.0797046313136172
2.56,-0.0810063155341831
2.565,-0.0823420531318535
2.57,-0.0837134027410183
2.575,-0.0851220558143245
2.58,-0.0865698555745341
2.585,-0.0880588196802162
2.59,-0.0895911674909566
2.595,-0.0911693530619203
2.6,-0.092796105317478
2.605,-0.0944744772754166
2.61,-0.0962079067528029
2.615,-0.0980002917312845
2.62,-0.0998560845623529
2.625,-0.10178041054713
2.63,-0.103779218264285
2.635,-0.105859471529209
2.64,-0.108029396306002
2.645,-0.110298800616706
2.65,-0.112679491979802
2.655,-0.115185825789689
2.66,-0.117835430082194
2.665,-0.120650168102376
2.67,-0.123657420422865
2.675,-0.126891792064072
2.68,-0.130397372086332
2.685,-0.134230677956497
2.69,-0.138464363841211
2.695,-0.14319156140219
2.7,-0.148530124494952
2.705,-0.154624569850066
2.71,-0.161640180024552
2.715,-0.169737085940966
2.72,-0.179001461187394
2.725,-0.189302554493333
2.73,-0.200068020337859
2.735,-0.210089221289353
2.74,-0.217678685928773
2.745,-0.221455643305736
2.75,-0.221298828875447
2.755,-0.218433406548383
2.76,-0.214550892033979
2.765,-0.210955348291046
2.77,-0.208321161709789
2.775,-0.20685287128994
2.78,-0.206509923176271
2.785,-0.207159360431409
2.79,-0.208653020150457
2.795,-0.210858643900572
2.8,-0.213668585763031
2.805,-0.216999296624907
2.81,-0.220787777144039
2.815,-0.224987573090576
2.82,-0.229565230302454
2.825,-0.234497434586248
2.83,-0.239768803279846
2.835,-0.24537021828524
2.84,-0.251297583623345
2.845,-0.257550906997843
2.85,-0.264133625920356
2.855,-0.271052118084652
2.86,-0.278315351155959
2.865,-0.285934639023887
2.87,-0.293923480461332
2.875,-0.302297462713494
2.88,-0.311074217397408
2.885,-0.32027341968611
2.89,-0.329916824431322
2.895,-0.340028334901756
2.9,-0.350634101368481
2.905,-0.361762647990735
2.91,-0.373445027445504
2.915,-0.385715003575267
2.92,-0.398609263056288
2.925,-0.41216765775697
2.93,-0.426433480095544
2.935,-0.441453774346608
2.94,-0.457279687510621
2.945,-0.47396686407172
2.95,-0.491575889748048
2.955,-0.510172790207437
2.96,-0.529829591702951
2.965,-0.550624951702921
2.97,-0.572644868878109
2.975,-0.595983483297842
2.98,-0.620743979416591
2.985,-0.647039606448375
2.99,-0.674994833083606
2.995,-0.704746656266079
3,-0.736446086995235
