"Freq [GHz]","dB(S(ground_T1,ground_T1)) []"
2,-0.0262726458874803
2.005,-0.0261227641323242
2.01,-0.0260057320104929
2.015,-0.0259198170091167
2.02,-0.025863320660953
2.025,-0.0258345817059234
2.03,-0.0258319789665252
2.035,-0.0258539339332199
2.04,-0.0258989130585202
2.045,-0.0259654297608939
2.05,-0.0260520461419262
2.055,-0.0261573744221286
2.06,-0.0262800781027826
2.065,-0.0264188728627823
2.07,-0.0265725272009152
2.075,-0.0267398628352204
2.08,-0.026919754872187
2.085,-0.0271111317592625
2.09,-0.02731297503483
2.095,-0.0275243188902773
2.1,-0.0277442495589773
2.105,-0.0279719045472214
2.11,-0.0282064717219548
2.115,-0.0284471882701599
2.12,-0.0286933395443428
2.125,-0.028944257808209
2.13,-0.0291993208961513
2.135,-0.0294579507996465
2.14,-0.0297196121929558
2.145,-0.0299838109100082
2.15,-0.0302500923835087
2.155,-0.0305180400566738
2.16,-0.0307872737772903
2.165,-0.0310574481829321
2.17,-0.0313282510855767
2.175,-0.0315994018630588
2.18,-0.0318706498640527
2.185,-0.0321417728326978
2.19,-0.0324125753581743
2.195,-0.0326828873540087
2.2,-0.032952562571237
2.205,-0.0332214771489373
2.21,-0.0334895282052015
2.215,-0.0337566324709986
2.22,-0.0340227249690066
2.225,-0.034287757738973
2.23,-0.0345516986108506
2.235,-0.0348145300264988
2.24,-0.0350762479104834
2.245,-0.0353368605901795
2.25,-0.0355963877650713
2.255,-0.0358548595250136
2.26,-0.0361123154168742
2.265,-0.0363688035588979
2.27,-0.0366243798019058
2.275,-0.0368791069363386
2.28,-0.0371330539440245
2.285,-0.0373862952934551
2.29,-0.0376389102772784
2.295,-0.0378909823906251
2.3,-0.038142598748909
2.305,-0.038393849543592
2.31,-0.0386448275345133
2.315,-0.0388956275772298
2.32,-0.0391463461839639
2.325,-0.0393970811165983
2.33,-0.039647931010319
2.335,-0.0398989950264136
2.34,-0.040150372532818
2.345,-0.0404021628110074
2.35,-0.0406544647879021
2.355,-0.0409073767913946
2.36,-0.0411609963282899
2.365,-0.0414154198833518
2.37,-0.0416707427382849
2.375,-0.0419270588094645
2.38,-0.0421844605033372
2.385,-0.0424430385883812
2.39,-0.0427028820826214
2.395,-0.0429640781557239
2.4,-0.043226712044694
2.405,-0.0434908669823464
2.41,-0.0437566241376561
2.415,-0.0440240625671681
2.42,-0.0442932591767516
2.425,-0.0445642886929145
2.43,-0.0448372236430494
2.435,-0.0451121343438932
2.44,-0.0453890888976551
2.445,-0.0456681531951798
2.45,-0.0459493909256265
2.455,-0.0462328635921673
2.46,-0.0465186305331702
2.465,-0.0468067489484754
2.47,-0.0470972739302879
2.475,-0.0473902584983536
2.48,-0.0476857536389473
2.485,-0.0479838083474571
2.49,-0.0482844696741142
2.495,-0.0485877827726501
2.5,-0.0488937909515866
2.505,-0.0492025357278457
2.51,-0.0495140568825109
2.515,-0.0498283925184739
2.52,-0.0501455791197572
2.525,-0.0504656516123284
2.53,-0.0507886434262494
2.535,-0.051114586558953
2.54,-0.0514435116395308
2.545,-0.0517754479938898
2.55,-0.0521104237106398
2.555,-0.0524484657076086
2.56,-0.0527895997988605
2.565,-0.0531338507621528
2.57,-0.0534812424067145
2.575,-0.053831797641285
2.58,-0.0541855385423382
2.585,-0.0545424864224298
2.59,-0.0549026618986042
2.595,-0.0552660849608159
2.6,-0.0556327750403381
2.605,-0.0560027510780866
2.61,-0.0563760315928414
2.615,-0.0567526347493633
2.62,-0.0571325784263183
2.625,-0.0575158802840711
2.63,-0.057902557832248
2.635,-0.0582926284971268
2.64,-0.0586861096888088
2.645,-0.0590830188681592
2.65,-0.0594833736135284
2.655,-0.0598871916872734
2.66,-0.0602944911020344
2.665,-0.0607052901867967
2.67,-0.0611196076527507
2.675,-0.0615374626589415
2.68,-0.0619588748777266
2.685,-0.0623838645600551
2.69,-0.0628124526005592
2.695,-0.0632446606025083
2.7,-0.0636805109426161
2.705,-0.0641200268357177
2.71,-0.0645632323993478
2.715,-0.0650101527182128
2.72,-0.0654608139086029
2.725,-0.0659152431827702
2.73,-0.0663734689132401
2.735,-0.0668355206971471
2.74,-0.0673014294205637
2.745,-0.0677712273228792
2.75,-0.0682449480612166
2.755,-0.0687226267749604
2.76,-0.0692043001503621
2.765,-0.0696900064852941
2.77,-0.0701797857541414
2.775,-0.0706736796728897
2.78,-0.0711717317644068
2.785,-0.0716739874239512
2.79,-0.0721804939849304
2.795,-0.0726913007849602
2.8,-0.0732064592321944
2.805,-0.0737260228720305
2.81,-0.0742500474541122
2.815,-0.0747785909997759
2.82,-0.0753117138698635
2.825,-0.0758494788329889
2.83,-0.076391951134257
2.835,-0.0769391985644722
2.84,-0.0774912915298647
2.845,-0.0780483031223413
2.85,-0.0786103091903252
2.855,-0.0791773884101626
2.86,-0.079749622358162
2.865,-0.0803270955832755
2.87,-0.080909895680449
2.875,-0.0814981133646705
2.88,-0.0820918425457391
2.885,-0.0826911804037734
2.89,-0.0832962274655256
2.895,-0.0839070876814579
2.9,-0.0845238685036635
2.905,-0.0851466809646592
2.91,-0.0857756397570169
2.915,-0.086410863313933
2.92,-0.0870524738907157
2.925,-0.0877005976472231
2.93,-0.0883553647312902
2.935,-0.0890169093631711
2.94,-0.0896853699209877
2.945,-0.0903608890272622
2.95,-0.0910436136365253
2.955,-0.0917336951240319
2.96,-0.0924312893755851
2.965,-0.0931365568785812
2.97,-0.093849662814163
2.975,-0.0945707771506314
2.98,-0.095300074738068
2.985,-0.096037735404217
2.99,-0.0967839440516584
2.995,-0.0975388907562529
3,-0.0983027708669578
