"Freq [GHz]","dB(S(ground_T1,ground_T1)) []"
2,-0.0143744893052153
2.005,-0.0144215855704813
2.01,-0.0144690707860791
2.015,-0.0145169478868342
2.02,-0.0145652198203627
2.025,-0.0146138895471617
2.03,-0.0146629600406857
2.035,-0.0147124342874428
2.04,-0.0147623152870652
2.045,-0.014812606052417
2.05,-0.0148633096096685
2.055,-0.0149144289983843
2.06,-0.0149659672716126
2.065,-0.0150179274959721
2.07,-0.0150703127517444
2.075,-0.0151231261329607
2.08,-0.0151763707474851
2.085,-0.0152300497171173
2.09,-0.0152841661776681
2.095,-0.015338723279057
2.1,-0.0153937241854044
2.105,-0.0154491720751183
2.11,-0.0155050701409865
2.115,-0.0155614215902711
2.12,-0.0156182296447968
2.125,-0.0156754975410471
2.13,-0.0157332285302527
2.135,-0.0157914258784901
2.14,-0.0158500928667692
2.145,-0.0159092327911336
2.15,-0.0159688489627477
2.155,-0.0160289447080052
2.16,-0.0160895233685993
2.165,-0.0161505883016525
2.17,-0.01621214287978
2.175,-0.0162741904912046
2.18,-0.016336734539853
2.185,-0.0163997784454459
2.19,-0.0164633256436012
2.195,-0.0165273795859265
2.2,-0.0165919437401276
2.205,-0.0166570215900996
2.21,-0.0167226166360273
2.215,-0.0167887323944866
2.22,-0.0168553723985445
2.225,-0.0169225401978614
2.23,-0.0169902393587946
2.235,-0.0170584734644861
2.24,-0.0171272461149889
2.245,-0.0171965609273492
2.25,-0.0172664215357166
2.255,-0.0173368315914526
2.26,-0.0174077947632241
2.265,-0.0174793147371185
2.27,-0.0175513952167475
2.275,-0.0176240399233419
2.28,-0.0176972525958753
2.285,-0.0177710369911545
2.29,-0.017845396883935
2.295,-0.0179203360670307
2.3,-0.0179958583514149
2.305,-0.0180719675663338
2.31,-0.0181486675594177
2.315,-0.0182259621967868
2.32,-0.0183038553631577
2.325,-0.0183823509619679
2.33,-0.0184614529154734
2.335,-0.0185411651648636
2.34,-0.0186214916703846
2.345,-0.018702436411435
2.35,-0.0187840033866957
2.355,-0.01886619661423
2.36,-0.018949020131611
2.365,-0.0190324779960264
2.37,-0.0191165742844056
2.375,-0.0192013130935195
2.38,-0.019286698540122
2.385,-0.0193727347610393
2.39,-0.0194594259133091
2.395,-0.0195467761742944
2.4,-0.019634789741802
2.405,-0.0197234708341936
2.41,-0.019812823690524
2.415,-0.0199028525706502
2.42,-0.0199935617553552
2.425,-0.0200849555464765
2.43,-0.0201770382670165
2.435,-0.020269814261281
2.44,-0.020363287894995
2.445,-0.020457463555432
2.45,-0.0205523456515331
2.455,-0.0206479386140445
2.46,-0.020744246895632
2.465,-0.020841274971021
2.47,-0.0209390273371136
2.475,-0.0210375085131259
2.48,-0.0211367230407129
2.485,-0.0212366754841052
2.49,-0.02133737043023
2.495,-0.0214388124888536
2.5,-0.0215410062927084
2.505,-0.0216439564976231
2.51,-0.0217476677826662
2.515,-0.0218521448502714
2.52,-0.0219573924263783
2.525,-0.0220634152605619
2.53,-0.0221702181261842
2.535,-0.0222778058205139
2.54,-0.0223861831648752
2.545,-0.0224953550047835
2.55,-0.0226053262100873
2.555,-0.0227161016751069
2.56,-0.0228276863187783
2.565,-0.0229400850847904
2.57,-0.0230533029417309
2.575,-0.0231673448832304
2.58,-0.023282215928112
2.585,-0.0233979211205212
2.59,-0.0235144655300842
2.595,-0.0236318542520578
2.6,-0.0237500924074665
2.605,-0.0238691851432538
2.61,-0.0239891376324347
2.615,-0.0241099550742437
2.62,-0.0242316426942887
2.625,-0.0243542057446979
2.63,-0.0244776495042728
2.635,-0.0246019792786441
2.64,-0.0247272004004253
2.645,-0.0248533182293679
2.65,-0.0249803381525156
2.655,-0.0251082655843624
2.66,-0.0252371059670083
2.665,-0.0253668647703224
2.67,-0.0254975474920964
2.675,-0.0256291596582112
2.68,-0.0257617068227881
2.685,-0.0258951945683641
2.69,-0.0260296285060431
2.695,-0.0261650142756678
2.7,-0.0263013575459761
2.705,-0.0264386640147814
2.71,-0.0265769394091139
2.715,-0.0267161894854217
2.72,-0.0268564200297131
2.725,-0.0269976368577269
2.73,-0.027139845815121
2.735,-0.0272830527776262
2.74,-0.0274272636512327
2.745,-0.0275724843723451
2.75,-0.0277187209079731
2.755,-0.0278659792559007
2.76,-0.0280142654448576
2.765,-0.0281635855347086
2.77,-0.0283139456166136
2.775,-0.0284653518132286
2.78,-0.0286178102788672
2.785,-0.0287713271996856
2.79,-0.0289259087938806
2.795,-0.0290815613118451
2.8,-0.0292382910363769
2.805,-0.02939610428285
2.81,-0.0295550073994112
2.815,-0.0297150067671543
2.82,-0.0298761088003211
2.825,-0.0300383199464812
2.83,-0.0302016466867318
2.835,-0.0303660955358777
2.84,-0.0305316730426377
2.845,-0.0306983857898274
2.85,-0.030866240394556
2.855,-0.0310352435084323
2.86,-0.0312054018177416
2.865,-0.0313767220436699
2.87,-0.0315492109424775
2.875,-0.0317228753057188
2.88,-0.0318977219604329
2.885,-0.0320737577693481
2.89,-0.0322509896310942
2.895,-0.032429424480396
2.9,-0.0326090692882849
2.905,-0.0327899310623041
2.91,-0.0329720168467226
2.915,-0.0331553337227407
2.92,-0.0333398888086993
2.925,-0.033525689260294
2.93,-0.03371274227079
2.935,-0.0339010550712364
2.94,-0.0340906349306754
2.945,-0.034281489156366
2.95,-0.0344736250940079
2.955,-0.0346670501279471
2.96,-0.0348617716814021
2.965,-0.0350577972166934
2.97,-0.035255134235452
2.975,-0.0354537902788614
2.98,-0.0356537729278663
2.985,-0.0358550898034121
2.99,-0.0360577485666694
2.995,-0.0362617569192553
3,-0.0364671226034831
