"Freq [GHz]","dB(S(ground_T1,ground_T1)) []"
2,-0.0164204825727233
2.005,-0.0164997629719516
2.01,-0.016579571224314
2.015,-0.0166599104485089
2.02,-0.0167407838255894
2.025,-0.016822194598785
2.03,-0.0169041460733397
2.035,-0.0169866416163496
2.04,-0.0170696846566019
2.045,-0.0171532786844346
2.05,-0.0172374272515849
2.055,-0.0173221339710555
2.06,-0.0174074025169753
2.065,-0.0174932366244851
2.07,-0.0175796400896061
2.075,-0.0176666167691234
2.08,-0.0177541705804848
2.085,-0.0178423055016849
2.09,-0.0179310255711789
2.095,-0.0180203348877791
2.1,-0.0181102376105622
2.105,-0.0182007379588039
2.11,-0.0182918402118833
2.115,-0.0183835487092241
2.12,-0.0184758678502091
2.125,-0.0185688020941421
2.13,-0.0186623559601727
2.135,-0.0187565340272497
2.14,-0.0188513409340777
2.145,-0.0189467813790717
2.15,-0.019042860120324
2.155,-0.0191395819755649
2.16,-0.0192369518221494
2.165,-0.0193349745970238
2.17,-0.0194336552967091
2.175,-0.019532998977301
2.18,-0.0196330107544472
2.185,-0.0197336958033568
2.19,-0.0198350593587988
2.195,-0.0199371067151088
2.2,-0.0200398432262024
2.205,-0.0201432743055886
2.21,-0.0202474054263971
2.215,-0.0203522421213957
2.22,-0.0204577899830316
2.225,-0.0205640546634561
2.23,-0.0206710418745757
2.235,-0.0207787573880814
2.24,-0.0208872070355142
2.245,-0.020996396708305
2.25,-0.0211063323578426
2.255,-0.0212170199955229
2.26,-0.021328465692831
2.265,-0.0214406755813945
2.27,-0.0215536558530832
2.275,-0.0216674127600575
2.28,-0.0217819526148815
2.285,-0.0218972817905929
2.29,-0.0220134067208001
2.295,-0.0221303338997765
2.3,-0.0222480698825751
2.305,-0.0223666212851127
2.31,-0.0224859947842915
2.315,-0.0226061971181054
2.32,-0.0227272350857733
2.325,-0.0228491155478386
2.33,-0.0229718454263041
2.335,-0.0230954317047742
2.34,-0.0232198814285659
2.345,-0.0233452017048596
2.35,-0.0234713997028384
2.355,-0.0235984826538391
2.36,-0.0237264578514936
2.365,-0.0238553326518769
2.37,-0.0239851144736842
2.375,-0.0241158107983731
2.38,-0.0242474291703404
2.385,-0.0243799771970844
2.39,-0.0245134625493837
2.395,-0.0246478929614585
2.4,-0.0247832762311816
2.405,-0.0249196202202259
2.41,-0.0250569328542756
2.415,-0.0251952221232215
2.42,-0.0253344960813336
2.425,-0.0254747628474779
2.43,-0.0256160306053175
2.435,-0.0257583076035158
2.44,-0.0259016021559411
2.445,-0.0260459226418956
2.45,-0.0261912775063156
2.455,-0.0263376752600041
2.46,-0.0264851244798477
2.465,-0.0266336338090545
2.47,-0.0267832119573733
2.475,-0.0269338677013374
2.48,-0.0270856098845037
2.485,-0.0272384474176846
2.49,-0.0273923892792048
2.495,-0.0275474445151509
2.5,-0.0277036222396121
2.505,-0.0278609316349487
2.51,-0.0280193819520413
2.515,-0.02817898251057
2.52,-0.0283397426992558
2.525,-0.0285016719761509
2.53,-0.0286647798689075
2.535,-0.0288290759750437
2.54,-0.0289945699622351
2.545,-0.0291612715685939
2.55,-0.0293291906029539
2.555,-0.0294983369451603
2.56,-0.0296687205463608
2.565,-0.0298403514293078
2.57,-0.0300132396886531
2.575,-0.0301873954912481
2.58,-0.0303628290764555
2.585,-0.0305395507564514
2.59,-0.0307175709165456
2.595,-0.0308969000154903
2.6,-0.031077548585798
2.605,-0.0312595272340748
2.61,-0.0314428466413258
2.615,-0.0316275175632967
2.62,-0.031813550830804
2.625,-0.0320009573500601
2.63,-0.032189748103024
2.635,-0.0323799341477238
2.64,-0.0325715266186175
2.645,-0.0327645367269262
2.65,-0.0329589757609923
2.655,-0.0331548550866216
2.66,-0.0333521861474487
2.665,-0.0335509804652877
2.67,-0.0337512496404959
2.675,-0.0339530053523373
2.68,-0.0341562593593474
2.685,-0.0343610234997069
2.69,-0.0345673096916116
2.695,-0.0347751299336449
2.7,-0.034984496305161
2.705,-0.035195420966664
2.71,-0.0354079161601843
2.715,-0.0356219942096858
2.72,-0.0358376675214239
2.725,-0.0360549485843677
2.73,-0.0362738499705758
2.735,-0.0364943843355998
2.74,-0.0367165644188844
2.745,-0.0369404030441702
2.75,-0.0371659131198978
2.755,-0.0373931076396133
2.76,-0.0376219996823898
2.765,-0.0378526024132258
2.77,-0.0380849290834689
2.775,-0.0383189930312354
2.78,-0.0385548076818236
2.785,-0.038792386548152
2.79,-0.0390317432311607
2.795,-0.0392728914202664
2.8,-0.0395158448937775
2.805,-0.0397606175193229
2.81,-0.0400072232543016
2.815,-0.040255676146315
2.82,-0.0405059903336032
2.825,-0.0407581800454889
2.83,-0.0410122596028186
2.835,-0.0412682434184247
2.84,-0.0415261459975537
2.845,-0.0417859819383328
2.85,-0.0420477659322183
2.855,-0.0423115127644512
2.86,-0.0425772373145142
2.865,-0.0428449545565962
2.87,-0.0431146795600417
2.875,-0.0433864274898401
2.88,-0.0436602136070596
2.885,-0.0439360532693452
2.89,-0.0442139619313652
2.895,-0.0444939551452962
2.9,-0.0447760485612941
2.905,-0.0450602579279747
2.91,-0.0453465990928747
2.915,-0.0456350880029543
2.92,-0.04592574070506
2.925,-0.0462185733464126
2.93,-0.0465136021750989
2.935,-0.046810843540549
2.94,-0.0471103138940204
2.945,-0.0474120297891075
2.95,-0.047716007882206
2.955,-0.0480222649330246
2.96,-0.0483308178050733
2.965,-0.048641683466156
2.97,-0.0489548789888644
2.975,-0.0492704215510904
2.98,-0.0495883284365104
2.985,-0.0499086170350864
2.99,-0.0502313048435795
2.995,-0.0505564094660409
3,-0.0508839486143257
