"Freq [GHz]","dB(S(ground_T1,ground_T1)) []"
2,-0.0209830201858278
2.005,-0.0211675248213663
2.01,-0.0213526964299639
2.015,-0.021538573748646
2.02,-0.0217251952718332
2.025,-0.0219125992578972
2.03,-0.0221008237357439
2.035,-0.02228990651141
2.04,-0.0224798851746776
2.045,-0.0226707971057188
2.05,-0.0228626794817622
2.055,-0.0230555692837856
2.06,-0.0232495033032456
2.065,-0.0234445181488449
2.07,-0.0236406502533284
2.075,-0.0238379358803311
2.08,-0.0240364111312575
2.085,-0.0242361119522294
2.09,-0.0244370741410492
2.095,-0.0246393333542611
2.1,-0.0248429251142286
2.105,-0.0250478848162959
2.11,-0.0252542477360083
2.115,-0.0254620490363838
2.12,-0.0256713237752773
2.125,-0.0258821069128117
2.13,-0.0260944333188579
2.135,-0.0263083377806376
2.14,-0.0265238550103835
2.145,-0.0267410196530839
2.15,-0.0269598662943353
2.155,-0.027180429468269
2.16,-0.0274027436655911
2.165,-0.027626843341709
2.17,-0.0278527629249821
2.175,-0.0280805368250619
2.18,-0.0283101994413532
2.185,-0.0285417851715962
2.19,-0.0287753284205653
2.195,-0.0290108636088832
2.2,-0.0292484251819845
2.205,-0.0294880476191937
2.21,-0.0297297654429525
2.215,-0.0299736132281782
2.22,-0.0302196256117852
2.225,-0.0304678373023361
2.23,-0.0307182830898649
2.235,-0.0309709978558498
2.24,-0.0312260165833622
2.245,-0.0314833743673834
2.25,-0.0317431064252698
2.255,-0.0320052481074511
2.26,-0.032269834908255
2.265,-0.0325369024769709
2.27,-0.032806486629081
2.275,-0.0330786233577004
2.28,-0.0333533488452201
2.285,-0.033630699475181
2.29,-0.0339107118443435
2.295,-0.0341934227749956
2.3,-0.0344788693274793
2.305,-0.0347670888129705
2.31,-0.0350581188064961
2.315,-0.0353519971601959
2.32,-0.0356487620168426
2.325,-0.0359484518236314
2.33,-0.0362511053462328
2.335,-0.0365567616831278
2.34,-0.036865460280232
2.345,-0.0371772409457957
2.35,-0.0374921438656296
2.355,-0.0378102096186021
2.36,-0.0381314791925015
2.365,-0.038455994000173
2.37,-0.0387837958960166
2.375,-0.0391149271928309
2.38,-0.039449430678971
2.385,-0.0397873496359126
2.39,-0.0401287278561442
2.395,-0.0404736096614662
2.4,-0.0408220399216466
2.405,-0.0411740640735092
2.41,-0.041529728140391
2.415,-0.0418890787520514
2.42,-0.0422521631649824
2.425,-0.0426190292831754
2.43,-0.0429897256793219
2.435,-0.0433643016164903
2.44,-0.0437428070702689
2.445,-0.0441252927513932
2.45,-0.0445118101288635
2.455,-0.0449024114535921
2.46,-0.0452971497825472
2.465,-0.0456960790034563
2.47,-0.0460992538600405
2.475,-0.0465067299778185
2.48,-0.046918563890492
2.485,-0.0473348130669238
2.49,-0.0477555359386973
2.495,-0.0481807919283464
2.5,-0.0486106414781794
2.505,-0.0490451460797765
2.51,-0.0494843683041495
2.515,-0.0499283718326041
2.52,-0.0503772214882848
2.525,-0.0508309832684659
2.53,-0.0512897243775607
2.535,-0.0517535132609146
2.54,-0.052222419639349
2.545,-0.0526965145445316
2.55,-0.0531758703551521
2.555,-0.053660560833932
2.56,-0.0541506611655098
2.565,-0.054646247995209
2.57,-0.05514739946869
2.575,-0.05565419527256
2.58,-0.0561667166759183
2.585,-0.0566850465728842
2.59,-0.0572092695261246
2.595,-0.0577394718114176
2.6,-0.0582757414632485
2.605,-0.058818168321517
2.61,-0.059366844079333
2.615,-0.059921862331951
2.62,-0.0604833186268808
2.625,-0.0610513105151954
2.63,-0.0616259376040514
2.635,-0.0622073016104894
2.64,-0.0627955064164988
2.645,-0.0633906581254562
2.65,-0.063992865119863
2.655,-0.0646022381205427
2.66,-0.0652188902472012
2.665,-0.0658429370805253
2.67,-0.0664744967257311
2.675,-0.067113689877707
2.68,-0.0677606398877046
2.685,-0.0684154728316812
2.69,-0.0690783175803162
2.695,-0.0697493058707262
2.7,-0.0704285723799483
2.705,-0.0711162548002467
2.71,-0.0718124939162548
2.715,-0.0725174336840133
2.72,-0.0732312213120043
2.725,-0.0739540073441342
2.73,-0.0746859457448256
2.735,-0.0754271939861933
2.74,-0.0761779131374005
2.745,-0.076938267956254
2.75,-0.0777084269830588
2.755,-0.0784885626368463
2.76,-0.0792788513140005
2.765,-0.0800794734893725
2.77,-0.0808906138199283
2.775,-0.0817124612510009
2.78,-0.0825452091252352
2.785,-0.0833890552942935
2.79,-0.0842442022333506
2.795,-0.0851108571585403
2.8,-0.0859892321473533
2.805,-0.0868795442621105
2.81,-0.0877820156765664
2.815,-0.0886968738057791
2.82,-0.0896243514392469
2.825,-0.0905646868775056
2.83,-0.0915181240721981
2.835,-0.0924849127697465
2.84,-0.0934653086587296
2.845,-0.0944595735210503
2.85,-0.0954679753870076
2.855,-0.0964907886943669
2.86,-0.0975282944515835
2.865,-0.098580780405191
2.87,-0.0996485412116274
2.875,-0.10073187861344
2.88,-0.101831101620157
2.885,-0.102946526693818
2.89,-0.104078477939403
2.895,-0.105227287300198
2.9,-0.106393294758334
2.905,-0.107576848540537
2.91,-0.108778305329329
2.915,-0.109998030479767
2.92,-0.111236398241897
2.925,-0.112493791989111
2.93,-0.113770604452501
2.935,-0.115067237961444
2.94,-0.116384104690576
2.945,-0.117721626913296
2.95,-0.119080237262053
2.955,-0.120460378995524
2.96,-0.121862506272941
2.965,-0.123287084435754
2.97,-0.12473459029681
2.975,-0.126205512437265
2.98,-0.127700351511501
2.985,-0.129219620560178
2.99,-0.130763845331755
2.995,-0.132333564612614
3,-0.133929330566126
