"Freq [GHz]","dB(S(ground_T1,ground_T1)) []"
2,-0.0143592295110244
2.005,-0.0144029266841969
2.01,-0.0144469818082556
2.015,-0.0144913974384512
2.02,-0.0145361761416575
2.025,-0.0145813204964469
2.03,-0.0146268330931551
2.035,-0.0146727165339307
2.04,-0.0147189734328095
2.045,-0.0147656064157706
2.05,-0.0148126181208114
2.055,-0.0148600111979928
2.06,-0.0149077883095201
2.065,-0.0149559521298093
2.07,-0.0150045053455292
2.075,-0.0150534506556953
2.08,-0.0151027907717128
2.085,-0.0151525284174611
2.09,-0.0152026663293368
2.095,-0.0152532072563457
2.1,-0.0153041539601502
2.105,-0.0153555092151449
2.11,-0.0154072758085243
2.115,-0.0154594565403373
2.12,-0.0155120542235813
2.125,-0.0155650716842435
2.13,-0.015618511761383
2.135,-0.0156723773071935
2.14,-0.015726671187085
2.145,-0.0157813962797332
2.15,-0.0158365554771614
2.155,-0.0158921516848128
2.16,-0.0159481878216135
2.165,-0.0160046668200448
2.17,-0.0160615916262194
2.175,-0.0161189651999376
2.18,-0.0161767905147829
2.185,-0.0162350705581695
2.19,-0.0162938083314321
2.195,-0.016353006849884
2.2,-0.0164126691429015
2.205,-0.0164727982539923
2.21,-0.0165333972408724
2.215,-0.0165944691755237
2.22,-0.0166560171442964
2.225,-0.0167180442479522
2.23,-0.0167805536017672
2.235,-0.0168435483355873
2.24,-0.0169070315939096
2.245,-0.01697100653596
2.25,-0.0170354763357691
2.255,-0.0171004441822452
2.26,-0.0171659132792497
2.265,-0.0172318868456838
2.27,-0.0172983681155576
2.275,-0.0173653603380642
2.28,-0.0174328667776658
2.285,-0.017500890714177
2.29,-0.0175694354428171
2.295,-0.0176385042743267
2.3,-0.0177081005350211
2.305,-0.0177782275668706
2.31,-0.017848888727597
2.315,-0.0179200873907365
2.32,-0.0179918269457359
2.325,-0.0180641107980161
2.33,-0.0181369423690749
2.335,-0.0182103250965462
2.34,-0.0182842624343011
2.345,-0.0183587578525236
2.35,-0.0184338148377884
2.355,-0.0185094368931515
2.36,-0.0185856275382297
2.365,-0.0186623903092923
2.37,-0.0187397287593339
2.375,-0.0188176464581646
2.38,-0.0188961469924998
2.385,-0.0189752339660396
2.39,-0.0190549109995586
2.395,-0.0191351817309876
2.4,-0.0192160498155103
2.405,-0.0192975189256357
2.41,-0.0193795927513015
2.415,-0.0194622749999472
2.42,-0.019545569396614
2.425,-0.0196294796840321
2.43,-0.0197140096226993
2.435,-0.0197991629909854
2.44,-0.0198849435852117
2.445,-0.019971355219745
2.45,-0.0200584017270928
2.455,-0.0201460869579793
2.46,-0.0202344147814607
2.465,-0.0203233890849972
2.47,-0.0204130137745499
2.475,-0.020503292774682
2.48,-0.0205942300286481
2.485,-0.020685829498479
2.49,-0.0207780951650854
2.495,-0.0208710310283568
2.5,-0.0209646411072367
2.505,-0.021058929439846
2.51,-0.0211539000835568
2.515,-0.021249557115089
2.52,-0.0213459046306299
2.525,-0.0214429467459044
2.53,-0.021540687596286
2.535,-0.0216391313368901
2.54,-0.021738282142682
2.545,-0.0218381442085642
2.55,-0.021938721749483
2.555,-0.0220400190005193
2.56,-0.0221420402170056
2.565,-0.0222447896746067
2.57,-0.0223482716694437
2.575,-0.022452490518169
2.58,-0.0225574505580934
2.585,-0.0226631561472682
2.59,-0.0227696116646089
2.595,-0.0228768215099761
2.6,-0.0229847901043037
2.605,-0.0230935218896818
2.61,-0.0232030213294733
2.615,-0.02331329290842
2.62,-0.0234243411327442
2.625,-0.0235361705302505
2.63,-0.0236487856504512
2.635,-0.0237621910646501
2.64,-0.0238763913660699
2.645,-0.0239913911699437
2.65,-0.0241071951136447
2.655,-0.0242238078567719
2.66,-0.024341234081281
2.665,-0.0244594784915789
2.67,-0.0245785458146447
2.675,-0.0246984408001365
2.68,-0.0248191682205064
2.685,-0.0249407328711115
2.69,-0.0250631395703269
2.695,-0.0251863931596519
2.7,-0.0253104985038439
2.705,-0.0254354604910088
2.71,-0.0255612840327364
2.715,-0.0256879740642002
2.72,-0.0258155355442808
2.725,-0.0259439734556888
2.73,-0.0260732928050697
2.735,-0.0262034986231296
2.74,-0.0263345959647494
2.745,-0.0264665899091079
2.75,-0.0265994855598008
2.755,-0.0267332880449469
2.76,-0.0268680025173398
2.765,-0.0270036341545332
2.77,-0.027140188158985
2.775,-0.0272776697581745
2.78,-0.0274160842047179
2.785,-0.0275554367765076
2.79,-0.0276957327768178
2.795,-0.0278369775344374
2.8,-0.0279791764038004
2.805,-0.0281223347650987
2.81,-0.028266458024422
2.815,-0.0284115516138705
2.82,-0.0285576209916971
2.825,-0.0287046716424195
2.83,-0.0288527090769658
2.835,-0.0290017388327906
2.84,-0.0291517664740031
2.845,-0.0293027975915075
2.85,-0.0294548378031339
2.855,-0.0296078927537577
2.86,-0.0297619681154398
2.865,-0.029917069587565
2.87,-0.0300732028969614
2.875,-0.0302303737980402
2.88,-0.0303885880729383
2.885,-0.0305478515316426
2.89,-0.0307081700121302
2.895,-0.0308695493805034
2.9,-0.0310319955311261
2.905,-0.0311955143867679
2.91,-0.0313601118987322
2.915,-0.0315257940469988
2.92,-0.0316925668403676
2.925,-0.0318604363165983
2.93,-0.0320294085425361
2.935,-0.032199489614281
2.94,-0.0323706856573016
2.945,-0.0325430028265977
2.95,-0.0327164473068324
2.955,-0.0328910253124852
2.96,-0.0330667430879768
2.965,-0.0332436069078512
2.97,-0.0334216230768763
2.975,-0.0336007979302274
2.98,-0.0337811378336207
2.985,-0.0339626491834526
2.99,-0.0341453384069616
2.995,-0.0343292119623736
3,-0.0345142763390488
