"Freq [GHz]","dB(S(ground_T1,ground_T1)) []"
2,-0.0167481221521015
2.005,-0.0168381904637485
2.01,-0.0169288759734627
2.015,-0.0170201854300067
2.02,-0.0171121256621493
2.025,-0.017204703580316
2.03,-0.0172979261782617
2.035,-0.0173918005348105
2.04,-0.0174863338156195
2.045,-0.0175815332750065
2.05,-0.0176774062578212
2.055,-0.0177739602013672
2.06,-0.0178712026373855
2.065,-0.0179691411940935
2.07,-0.0180677835982568
2.075,-0.0181671376773746
2.08,-0.0182672113618648
2.085,-0.0183680126873648
2.09,-0.0184695497970742
2.095,-0.0185718309441665
2.1,-0.018674864494295
2.105,-0.018778658928146
2.11,-0.0188832228440919
2.115,-0.0189885649609178
2.12,-0.0190946941206351
2.125,-0.0192016192913862
2.13,-0.0193093495704238
2.135,-0.0194178941872245
2.14,-0.0195272625066509
2.145,-0.0196374640322683
2.15,-0.0197485084097318
2.155,-0.0198604054303026
2.16,-0.0199731650344777
2.165,-0.02008679731575
2.17,-0.0202013125244751
2.175,-0.0203167210719036
2.18,-0.0204330335343038
2.185,-0.0205502606572839
2.19,-0.0206684133602238
2.195,-0.0207875027408774
2.2,-0.0209075400801431
2.205,-0.0210285368470026
2.21,-0.0211505047036162
2.215,-0.0212734555106548
2.22,-0.0213974013327715
2.225,-0.0215223544443102
2.23,-0.0216483273352217
2.235,-0.0217753327171811
2.24,-0.0219033835299687
2.245,-0.0220324929480741
2.25,-0.0221626743875492
2.255,-0.0222939415131526
2.26,-0.0224263082457346
2.265,-0.0225597887699568
2.27,-0.0226943975422764
2.275,-0.022830149299277
2.28,-0.0229670590663193
2.285,-0.0231051421665513
2.29,-0.0232444142302835
2.295,-0.0233848912047427
2.3,-0.0235265893642468
2.305,-0.0236695253207836
2.31,-0.0238137160350573
2.315,-0.0239591788279823
2.32,-0.0241059313926793
2.325,-0.024253991806991
2.33,-0.0244033785465265
2.335,-0.0245541104982944
2.34,-0.024706206974921
2.345,-0.0248596877295048
2.35,-0.0250145729711361
2.355,-0.0251708833811186
2.36,-0.0253286401299137
2.365,-0.0254878648948726
2.37,-0.0256485798787902
2.375,-0.0258108078292984
2.38,-0.0259745720591896
2.385,-0.0261398964676796
2.39,-0.026306805562705
2.395,-0.0264753244842572
2.4,-0.026645479028865
2.405,-0.0268172956752534
2.41,-0.0269908016112789
2.415,-0.0271660247621625
2.42,-0.0273429938201638
2.425,-0.027521738275712
2.43,-0.0277022884501353
2.435,-0.0278846755300272
2.44,-0.0280689316034197
2.445,-0.0282550896977844
2.45,-0.0284431838200414
2.455,-0.0286332489986741
2.46,-0.0288253213280467
2.465,-0.0290194380151348
2.47,-0.0292156374287329
2.475,-0.0294139591513484
2.48,-0.0296144440339467
2.485,-0.0298171342537001
2.49,-0.0300220733749649
2.495,-0.0302293064136705
2.5,-0.0304388799053561
2.505,-0.0306508419770877
2.51,-0.0308652424235257
2.515,-0.0310821327873782
2.52,-0.0313015664445958
2.525,-0.0315235986945776
2.53,-0.0317482868557494
2.535,-0.0319756903668879
2.54,-0.032205870894592
2.545,-0.0324388924472945
2.55,-0.032674821496355
2.555,-0.0329137271046287
2.56,-0.0331556810631677
2.565,-0.0334007580365337
2.57,-0.0336490357174451
2.575,-0.0339005949913659
2.58,-0.0341555201118479
2.585,-0.0344138988873884
2.59,-0.0346758228806833
2.595,-0.0349413876212399
2.6,-0.0352106928323813
2.605,-0.035483842673734
2.61,-0.0357609460004686
2.615,-0.0360421166405713
2.62,-0.0363274736916583
2.625,-0.0366171418388338
2.63,-0.0369112516954115
2.635,-0.037209940168314
2.64,-0.0375133508502616
2.645,-0.0378216344409761
2.65,-0.0381349491999121
2.655,-0.0384534614332168
2.66,-0.0387773460179059
2.665,-0.0391067869665104
2.67,-0.0394419780358689
2.675,-0.0397831233839462
2.68,-0.0401304382791311
2.685,-0.040484149866802
2.69,-0.0408444979985253
2.695,-0.0412117361297435
2.7,-0.0415861322925268
2.705,-0.0419679701506122
2.71,-0.0423575501447502
2.715,-0.0427551907372707
2.72,-0.0431612297658392
2.725,-0.0435760259173954
2.73,-0.0439999603346166
2.735,-0.0444334383686753
2.74,-0.0448768914936415
2.745,-0.0453307793997741
2.75,-0.0457955922849681
2.755,-0.046271853366081
2.76,-0.0467601216344252
2.765,-0.0472609948829682
2.77,-0.0477751130360741
2.775,-0.0483031618168297
2.78,-0.0488458767914962
2.785,-0.0494040478358678
2.79,-0.0499785240745164
2.795,-0.0505702193507805
2.8,-0.0511801182934673
2.805,-0.0518092830556475
2.81,-0.0524588608116283
2.815,-0.0531300921109217
2.82,-0.0538243202026082
2.825,-0.0545430014606285
2.83,-0.0552877170606132
2.835,-0.0560601860823005
2.84,-0.0568622802392964
2.845,-0.0576960404704668
2.85,-0.0585636956657874
2.855,-0.059467683845225
2.86,-0.0604106761634098
2.865,-0.0613956041777455
2.87,-0.0624256908950102
2.875,-0.0635044862045188
2.88,-0.0646359074178224
2.885,-0.0658242857702028
2.89,-0.0670744199031626
2.895,-0.0683916375466865
2.9,-0.0697818668637616
2.905,-0.0712517192185665
2.91,-0.0728085854979546
2.915,-0.0744607485710139
2.92,-0.0762175150371687
2.925,-0.0780893701191944
2.93,-0.0800881604427578
2.935,-0.08222731056002
2.94,-0.0845220804888843
2.945,-0.0869898733409221
2.95,-0.089650604419865
2.955,-0.092527146148816
2.96,-0.0956458670456909
2.965,-0.0990372880090694
2.97,-0.102736885807521
2.975,-0.106786082448357
2.98,-0.11123347082385
2.985,-0.116136342803179
2.99,-0.121562607333394
2.995,-0.127593215395637
3,-0.134325249114272
