"Freq [GHz]","dB(S(ground_T1,ground_T1)) []"
2,-0.0245258374214953
2.005,-0.0247933181548317
2.01,-0.0250625061985979
2.015,-0.0253333718498571
2.02,-0.0256058898865133
2.025,-0.0258800394304903
2.03,-0.0261558038130783
2.035,-0.0264331704425765
2.04,-0.0267121306742726
2.045,-0.0269926796827971
2.05,-0.027274816336913
2.055,-0.0275585430767801
2.06,-0.0278438657937578
2.065,-0.0281307937127307
2.07,-0.0284193392770248
2.075,-0.0287095180359503
2.08,-0.0290013485349484
2.085,-0.0292948522084021
2.09,-0.0295900532751094
2.095,-0.02988697863643
2.1,-0.0301856577771189
2.105,-0.0304861226688435
2.11,-0.0307884076764122
2.115,-0.031092549466654
2.12,-0.0313985869200457
2.125,-0.0317065610449714
2.13,-0.0320165148946745
2.135,-0.0323284934869039
2.14,-0.0326425437261662
2.145,-0.0329587143286526
2.15,-0.0332770557497875
2.155,-0.0335976201143783
2.16,-0.0339204611493568
2.165,-0.0342456341190989
2.17,-0.0345731957632828
2.175,-0.0349032042372817
2.18,-0.0352357190550754
2.185,-0.0355708010345897
2.19,-0.0359085122455748
2.195,-0.036248915959832
2.2,-0.036592076603898
2.205,-0.0369380597140764
2.21,-0.037286931893846
2.215,-0.0376387607735565
2.22,-0.0379936149724647
2.225,-0.0383515640629888
2.23,-0.0387126785372403
2.235,-0.0390770297757465
2.24,-0.0394446900183671
2.245,-0.0398157323373605
2.25,-0.0401902306125769
2.255,-0.040568259508756
2.26,-0.0409498944548982
2.265,-0.0413352116256779
2.27,-0.0417242879248803
2.275,-0.042117200970831
2.28,-0.0425140290838
2.285,-0.0429148512753393
2.29,-0.043319747239535
2.295,-0.0437287973461893
2.3,-0.0441420826358344
2.305,-0.0445596848166058
2.31,-0.0449816862629678
2.315,-0.0454081700162162
2.32,-0.0458392197867904
2.325,-0.0462749199583431
2.33,-0.0467153555935545
2.335,-0.0471606124416888
2.34,-0.0476107769478656
2.345,-0.0480659362640172
2.35,-0.0485261782615558
2.355,-0.0489915915456828
2.36,-0.0494622654713688
2.365,-0.0499382901609833
2.37,-0.0504197565235594
2.375,-0.0509067562756625
2.38,-0.0513993819639215
2.385,-0.0518977269891003
2.39,-0.0524018856318489
2.395,-0.052911953079979
2.4,-0.0534280254573957
2.405,-0.0539501998545507
2.41,-0.0544785743605591
2.415,-0.0550132480968277
2.42,-0.0555543212523226
2.425,-0.0561018951203952
2.43,-0.0566560721372183
2.435,-0.057216955921796
2.44,-0.0577846513175882
2.445,-0.0583592644357413
2.45,-0.0589409026999141
2.455,-0.0595296748927527
2.46,-0.0601256912039808
2.465,-0.060729063280133
2.47,-0.0613399042759599
2.475,-0.061958328907488
2.48,-0.0625844535067825
2.485,-0.0632183960784035
2.49,-0.0638602763575848
2.495,-0.0645102158701723
2.5,-0.0651683379942936
2.505,-0.0658347680238615
2.51,-0.0665096332338382
2.515,-0.0671930629473767
2.52,-0.0678851886048063
2.525,-0.0685861438345155
2.53,-0.0692960645257613
2.535,-0.0700150889034357
2.54,-0.0707433576048233
2.545,-0.0714810137583716
2.55,-0.0722282030645407
2.555,-0.0729850738787557
2.56,-0.07375177729647
2.565,-0.0745284672404729
2.57,-0.0753153005503439
2.575,-0.0761124370742676
2.58,-0.0769200397631131
2.585,-0.0777382747669114
2.59,-0.0785673115337401
2.595,-0.079407322911108
2.6,-0.0802584852498664
2.605,-0.0811209785106947
2.61,-0.0819949863732751
2.615,-0.0828806963481504
2.62,-0.0837782998913732
2.625,-0.0846879925220111
2.63,-0.0856099739425593
2.635,-0.0865444481623266
2.64,-0.0874916236239211
2.645,-0.0884517133328371
2.65,-0.0894249349902889
2.655,-0.0904115111293197
2.66,-0.0914116692543075
2.665,-0.0924256419839575
2.67,-0.0934536671978248
2.675,-0.0944959881865168
2.68,-0.0955528538056477
2.685,-0.0966245186336233
2.69,-0.0977112431334
2.695,-0.0988132938182939
2.7,-0.0999309434219578
2.705,-0.101064471072633
2.71,-0.102214162471805
2.715,-0.103380310077383
2.72,-0.10456321329148
2.725,-0.105763178652998
2.73,-0.106980520035091
2.735,-0.108215558847655
2.74,-0.109468624244996
2.745,-0.110740053338789
2.75,-0.11203019141652
2.755,-0.113339392165523
2.76,-0.114668017902787
2.765,-0.116016439810671
2.77,-0.117385038178748
2.775,-0.118774202651874
2.78,-0.120184332484708
2.785,-0.121615836802854
2.79,-0.123069134870799
2.795,-0.124544656366844
2.8,-0.126042841665222
2.805,-0.127564142125625
2.81,-0.129109020390316
2.815,-0.130677950689059
2.82,-0.132271419152093
2.825,-0.13388992413136
2.83,-0.135533976530225
2.835,-0.137204100141947
2.84,-0.138900831997117
2.845,-0.140624722720345
2.85,-0.142376336896432
2.855,-0.144156253446309
2.86,-0.145965066013031
2.865,-0.147803383358068
2.87,-0.149671829768252
2.875,-0.151571045473587
2.88,-0.15350168707634
2.885,-0.155464427991622
2.89,-0.157459958899864
2.895,-0.159488988211471
2.9,-0.161552242544038
2.905,-0.163650467212449
2.91,-0.165784426732216
2.915,-0.167954905336468
2.92,-0.170162707506937
2.925,-0.172408658519337
2.93,-0.174693605003554
2.935,-0.177018415519038
2.94,-0.179383981145831
2.945,-0.18179121609167
2.95,-0.184241058315591
2.955,-0.186734470168509
2.96,-0.189272439051236
2.965,-0.191855978090396
2.97,-0.194486126832761
2.975,-0.197163951958491
2.98,-0.199890548013785
2.985,-0.202667038163478
2.99,-0.205494574964158
2.995,-0.20837434115826
3,-0.211307550489817
