"Freq [GHz]","dB(S(ground_T1,ground_T1)) []"
2,-0.0149499697324254
2.005,-0.0150019426373028
2.01,-0.0150542917944557
2.015,-0.0151070201889914
2.02,-0.0151601308238546
2.025,-0.0152136267197539
2.03,-0.0152675109151205
2.035,-0.015321786466077
2.04,-0.0153764564463805
2.045,-0.0154315239473809
2.05,-0.015486992078003
2.055,-0.0155428639646917
2.06,-0.0155991427514005
2.065,-0.0156558315995403
2.07,-0.0157129336879728
2.075,-0.0157704522129797
2.08,-0.0158283903882408
2.085,-0.0158867514448146
2.09,-0.0159455386311173
2.095,-0.0160047552129245
2.1,-0.0160644044733385
2.105,-0.016124489712791
2.11,-0.0161850142490323
2.115,-0.016245981417127
2.12,-0.0163073945694428
2.125,-0.0163692570756585
2.13,-0.0164315723227626
2.135,-0.0164943437150461
2.14,-0.016557574674117
2.145,-0.0166212686389014
2.15,-0.0166854290656571
2.155,-0.0167500594279706
2.16,-0.0168151632167804
2.165,-0.0168807439403869
2.17,-0.0169468051244633
2.175,-0.0170133503120795
2.18,-0.0170803830637065
2.185,-0.0171479069572542
2.19,-0.0172159255880788
2.195,-0.0172844425690123
2.2,-0.0173534615303819
2.205,-0.0174229861200399
2.21,-0.0174930200033904
2.215,-0.0175635668634186
2.22,-0.0176346304007164
2.225,-0.0177062143335166
2.23,-0.0177783223977334
2.235,-0.0178509583469818
2.24,-0.0179241259526269
2.245,-0.0179978290038092
2.25,-0.0180720713074972
2.255,-0.0181468566885083
2.26,-0.0182221889895715
2.265,-0.0182980720713448
2.27,-0.018374509812485
2.275,-0.0184515061096646
2.28,-0.0185290648776417
2.285,-0.0186071900492924
2.29,-0.0186858855756557
2.295,-0.0187651554260035
2.3,-0.0188450035878633
2.305,-0.0189254340670866
2.31,-0.0190064508879017
2.315,-0.0190880580929527
2.32,-0.0191702597433712
2.325,-0.0192530599188182
2.33,-0.0193364627175527
2.335,-0.0194204722564752
2.34,-0.0195050926711977
2.345,-0.019590328116097
2.35,-0.019676182764376
2.355,-0.0197626608081266
2.36,-0.0198497664583896
2.365,-0.0199375039452218
2.37,-0.0200258775177497
2.375,-0.0201148914442508
2.38,-0.0202045500122039
2.385,-0.020294857528369
2.39,-0.0203858183188404
2.395,-0.0204774367291246
2.4,-0.0205697171242122
2.405,-0.0206626638886345
2.41,-0.0207562814265548
2.415,-0.0208505741618192
2.42,-0.0209455465380443
2.425,-0.0210412030186788
2.43,-0.021137548087087
2.435,-0.0212345862466206
2.44,-0.0213323220206947
2.445,-0.0214307599528561
2.45,-0.0215299046068765
2.455,-0.0216297605668169
2.46,-0.0217303324371149
2.465,-0.0218316248426532
2.47,-0.0219336424288549
2.475,-0.0220363898617508
2.48,-0.0221398718280634
2.485,-0.0222440930352977
2.49,-0.0223490582118201
2.495,-0.0224547721069323
2.5,-0.0225612394909721
2.505,-0.022668465155383
2.51,-0.0227764539128083
2.515,-0.0228852105971846
2.52,-0.0229947400638096
2.525,-0.0231050471894418
2.53,-0.0232161368723949
2.535,-0.0233280140326118
2.54,-0.0234406836117652
2.545,-0.0235541505733465
2.55,-0.0236684199027496
2.555,-0.0237834966073721
2.56,-0.0238993857167008
2.565,-0.0240160922824061
2.57,-0.0241336213784414
2.575,-0.0242519781011218
2.58,-0.0243711675692396
2.585,-0.0244911949241384
2.59,-0.0246120653298302
2.595,-0.0247337839730709
2.6,-0.0248563560634739
2.605,-0.0249797868335964
2.61,-0.0251040815390448
2.615,-0.0252292454585713
2.62,-0.0253552838941735
2.625,-0.0254822021711908
2.63,-0.0256100056384127
2.635,-0.0257386996681709
2.64,-0.0258682896564464
2.645,-0.0259987810229735
2.65,-0.0261301792113367
2.655,-0.026262489689081
2.66,-0.0263957179478057
2.665,-0.0265298695032796
2.67,-0.0266649498955433
2.675,-0.0268009646890081
2.68,-0.0269379194725758
2.685,-0.0270758198597263
2.69,-0.0272146714886429
2.695,-0.0273544800223076
2.7,-0.027495251148619
2.705,-0.027636990580501
2.71,-0.0277797040559867
2.715,-0.0279233973383814
2.72,-0.0280680762163142
2.725,-0.0282137465038897
2.73,-0.0283604140407785
2.735,-0.0285080846923473
2.74,-0.0286567643497476
2.745,-0.0288064589300519
2.75,-0.0289571743763579
2.755,-0.0291089166578906
2.76,-0.029261691770143
2.765,-0.0294155057349676
2.77,-0.029570364600707
2.775,-0.0297262744422993
2.78,-0.0298832413614074
2.785,-0.0300412714865228
2.79,-0.0302003709730958
2.795,-0.0303605460036386
2.8,-0.0305218027878607
2.805,-0.0306841475627836
2.81,-0.0308475865928485
2.815,-0.0310121261700565
2.82,-0.0311777726140645
2.825,-0.0313445322723345
2.83,-0.03151241152024
2.835,-0.0316814167611885
2.84,-0.0318515544267359
2.845,-0.0320228309767394
2.85,-0.0321952528994466
2.855,-0.0323688267116472
2.86,-0.0325435589587755
2.865,-0.0327194562150542
2.87,-0.0328965250836062
2.875,-0.0330747721965927
2.88,-0.033254204215327
2.885,-0.0334348278304227
2.89,-0.033616649761897
2.895,-0.0337996767593069
2.9,-0.0339839156018987
2.905,-0.0341693730986982
2.91,-0.034356056088683
2.915,-0.0345439714408786
2.92,-0.0347331260545015
2.925,-0.0349235268591007
2.93,-0.0351151808146816
2.935,-0.0353080949118241
2.94,-0.0355022761718363
2.945,-0.0356977316468862
2.95,-0.0358944684201133
2.955,-0.0360924936057931
2.96,-0.0362918143494513
2.965,-0.0364924378280042
2.97,-0.0366943712498926
2.975,-0.0368976218552284
2.98,-0.0371021969159138
2.985,-0.0373081037357929
2.99,-0.0375153496507843
2.995,-0.037723942029015
3,-0.0379338882709612
