"Freq [GHz]","dB(S(ground_T1,ground_T1)) []"
2,-0.0227098251621037
2.005,-0.0229016830396263
2.01,-0.0230949044201221
2.015,-0.0232895082974838
2.02,-0.0234855138077409
2.025,-0.0236829402325844
2.03,-0.023881807002904
2.035,-0.0240821337024225
2.04,-0.0242839400713505
2.045,-0.0244872460101395
2.05,-0.0246920715832607
2.055,-0.0248984370230655
2.06,-0.0251063627337125
2.065,-0.0253158692951544
2.07,-0.0255269774671878
2.075,-0.025739708193592
2.08,-0.0259540826063046
2.085,-0.026170122029715
2.09,-0.0263878479849956
2.095,-0.0266072821945286
2.1,-0.0268284465864005
2.105,-0.0270513632989884
2.11,-0.0272760546856218
2.115,-0.0275025433193366
2.12,-0.0277308519977013
2.125,-0.0279610037477415
2.13,-0.0281930218309648
2.135,-0.0284269297484551
2.14,-0.0286627512460908
2.145,-0.0289005103198369
2.15,-0.0291402312211476
2.155,-0.0293819384624776
2.16,-0.029625656822886
2.165,-0.0298714113537542
2.17,-0.0301192273846184
2.175,-0.0303691305291074
2.18,-0.030621146691005
2.185,-0.0308753020704184
2.19,-0.0311316231700838
2.195,-0.0313901368017772
2.2,-0.0316508700928799
2.205,-0.0319138504930436
2.21,-0.0321791057810148
2.215,-0.0324466640715846
2.22,-0.0327165538226702
2.225,-0.0329888038425689
2.23,-0.0332634432973202
2.235,-0.0335405017182582
2.24,-0.0338200090096853
2.245,-0.0341019954567289
2.25,-0.034386491733347
2.255,-0.0346735289104979
2.26,-0.034963138464494
2.265,-0.0352553522855222
2.27,-0.0355502026863288
2.275,-0.0358477224111214
2.28,-0.0361479446446183
2.285,-0.0364509030213201
2.29,-0.0367566316349749
2.295,-0.0370651650482176
2.3,-0.0373765383024556
2.305,-0.0376907869279382
2.31,-0.0380079469540579
2.315,-0.0383280549198578
2.32,-0.0386511478847842
2.325,-0.0389772634396733
2.33,-0.039306439717956
2.335,-0.0396387154071218
2.34,-0.0399741297604516
2.345,-0.0403127226089756
2.35,-0.0406545343737064
2.355,-0.0409996060781642
2.36,-0.0413479793611466
2.365,-0.0416996964898093
2.37,-0.042054800373017
2.375,-0.0424133345750086
2.38,-0.0427753433293752
2.385,-0.0431408715533201
2.39,-0.0435099648622808
2.395,-0.0438826695848518
2.4,-0.0442590327780674
2.405,-0.0446391022430054
2.41,-0.0450229265407846
2.415,-0.0454105550088885
2.42,-0.0458020377778964
2.425,-0.0461974257885685
2.43,-0.046596770809363
2.435,-0.0470001254543079
2.44,-0.0474075432013423
2.445,-0.047819078411039
2.45,-0.0482347863457853
2.455,-0.0486547231894138
2.46,-0.0490789460672754
2.465,-0.0495075130668016
2.47,-0.0499404832585441
2.475,-0.0503779167177045
2.48,-0.0508198745461874
2.485,-0.0512664188951647
2.49,-0.0517176129881794
2.495,-0.0521735211447979
2.5,-0.0526342088048431
2.505,-0.0530997425531757
2.51,-0.0535701901451114
2.515,-0.0540456205324207
2.52,-0.0545261038899562
2.525,-0.0550117116429469
2.53,-0.0555025164949415
2.535,-0.0559985924564188
2.54,-0.0565000148741164
2.545,-0.0570068604610718
2.55,-0.0575192073273807
2.555,-0.0580371350117499
2.56,-0.0585607245137812
2.565,-0.0590900583270869
2.57,-0.0596252204732145
2.575,-0.0601662965364027
2.58,-0.0607133736992251
2.585,-0.0612665407790959
2.59,-0.0618258882657047
2.595,-0.0623915083593972
2.6,-0.0629634950104955
2.605,-0.0635419439596329
2.61,-0.0641269527790945
2.615,-0.0647186209152044
2.62,-0.0653170497317976
2.625,-0.0659223425547916
2.63,-0.0665346047178878
2.635,-0.0671539436094651
2.64,-0.0677804687206414
2.645,-0.0684142916946128
2.65,-0.0690555263772089
2.655,-0.0697042888688125
2.66,-0.0703606975775915
2.665,-0.0710248732741028
2.67,-0.0716969391473535
2.675,-0.0723770208622858
2.68,-0.073065246618796
2.685,-0.073761747212282
2.69,-0.0744666560957915
2.695,-0.0751801094438059
2.7,-0.0759022462177056
2.705,-0.0766332082329808
2.71,-0.077373140228209
2.715,-0.078122189935892
2.72,-0.078880508155157
2.725,-0.0796482488264254
2.73,-0.0804255691080729
2.735,-0.0812126294551567
2.74,-0.0820095937002584
2.745,-0.0828166291365151
2.75,-0.0836339066029112
2.755,-0.0844616005718623
2.76,-0.0852998892392163
2.765,-0.0861489546166767
2.77,-0.08700898262679
2.775,-0.087880163200512
2.78,-0.0887626903774773
2.785,-0.0896567624090279
2.79,-0.09056258186408
2.795,-0.0914803557379422
2.8,-0.0924102955641485
2.805,-0.0933526175294137
2.81,-0.0943075425917854
2.815,-0.095275296602125
2.82,-0.0962561104289797
2.825,-0.0972502200869773
2.83,-0.098257866868851
2.835,-0.0992792974811813
2.84,-0.100314764184
2.845,-0.101364524934362
2.85,-0.102428843533997
2.855,-0.103507989781199
2.86,-0.104602239627046
2.865,-0.105711875336118
2.87,-0.106837185651841
2.875,-0.107978465966585
2.88,-0.109136018496716
2.885,-0.110310152462683
2.89,-0.111501184274373
2.895,-0.112709437721856
2.9,-0.113935244171695
2.905,-0.115178942769018
2.91,-0.116440880645507
2.915,-0.117721413133531
2.92,-0.119020903986559
2.925,-0.120339725606134
2.93,-0.121678259275538
2.935,-0.123036895400423
2.94,-0.124416033756597
2.945,-0.125816083745207
2.95,-0.127237464655564
2.955,-0.128680605935853
2.96,-0.130145947471973
2.965,-0.131633939874783
2.97,-0.133145044776019
2.975,-0.134679735133192
2.98,-0.136238495543693
2.985,-0.1378218225685
2.99,-0.139430225065715
2.995,-0.141064224534292
3,-0.142724355468322
