"Freq [GHz]","dB(S(ground_T1,ground_T1)) []"
2,-0.0153932959289703
2.005,-0.0154601526065331
2.01,-0.0155274725386187
2.015,-0.0155952590693532
2.02,-0.0156635155857428
2.025,-0.0157322455175455
2.03,-0.015801452337129
2.035,-0.0158711395593702
2.04,-0.0159413107415094
2.045,-0.0160119694830781
2.05,-0.016083119425761
2.055,-0.01615476425331
2.06,-0.0162269076914529
2.065,-0.016299553507803
2.07,-0.0163727055117663
2.075,-0.0164463675544796
2.08,-0.0165205435287267
2.085,-0.0165952373688681
2.09,-0.0166704530507946
2.095,-0.016746194591842
2.1,-0.0168224660507671
2.105,-0.0168992715276813
2.11,-0.0169766151640146
2.115,-0.0170545011424742
2.12,-0.0171329336870117
2.125,-0.0172119170627994
2.13,-0.0172914555761968
2.135,-0.0173715535747355
2.14,-0.017452215447108
2.145,-0.0175334456231494
2.15,-0.0176152485738403
2.155,-0.017697628811294
2.16,-0.0177805908887695
2.165,-0.0178641394006713
2.17,-0.0179482789825674
2.175,-0.018033014311196
2.18,-0.0181183501044958
2.185,-0.0182042911216194
2.19,-0.018290842162972
2.195,-0.0183780080702323
2.2,-0.0184657937263988
2.205,-0.0185542040558241
2.21,-0.0186432440242602
2.215,-0.0187329186389106
2.22,-0.0188232329484737
2.225,-0.0189141920432114
2.23,-0.0190058010549948
2.235,-0.0190980651573825
2.24,-0.0191909895656704
2.245,-0.0192845795369834
2.25,-0.0193788403703373
2.255,-0.0194737774067153
2.26,-0.0195693960291654
2.265,-0.0196657016628667
2.27,-0.0197626997752327
2.275,-0.0198603958760032
2.28,-0.0199587955173319
2.285,-0.0200579042939056
2.29,-0.0201577278430217
2.295,-0.0202582718447168
2.3,-0.0203595420218719
2.305,-0.0204615441403225
2.31,-0.0205642840089775
2.315,-0.0206677674799473
2.32,-0.0207720004486549
2.325,-0.0208769888539767
2.33,-0.0209827386783681
2.335,-0.0210892559479955
2.34,-0.0211965467328821
2.345,-0.0213046171470349
2.35,-0.021413473348603
2.355,-0.0215231215400189
2.36,-0.0216335679681529
2.365,-0.0217448189244564
2.37,-0.0218568807451313
2.375,-0.0219697598112873
2.38,-0.0220834625490973
2.385,-0.0221979954299766
2.39,-0.0223133649707409
2.395,-0.022429577733784
2.4,-0.0225466403272616
2.405,-0.022664559405253
2.41,-0.0227833416679554
2.415,-0.0229029938618682
2.42,-0.0230235227799747
2.425,-0.0231449352619417
2.43,-0.0232672381943035
2.435,-0.0233904385106691
2.44,-0.0235145431919154
2.445,-0.0236395592663949
2.45,-0.023765493810135
2.455,-0.0238923539470543
2.46,-0.0240201468491701
2.465,-0.0241488797368151
2.47,-0.0242785598788546
2.475,-0.0244091945929075
2.48,-0.0245407912455664
2.485,-0.02467335725263
2.49,-0.0248069000793317
2.495,-0.0249414272405674
2.5,-0.0250769463011279
2.505,-0.0252134648759519
2.51,-0.0253509906303475
2.515,-0.0254895312802536
2.52,-0.0256290945924704
2.525,-0.0257696883849239
2.53,-0.0259113205269059
2.535,-0.0260539989393327
2.54,-0.0261977315950123
2.545,-0.0263425265188878
2.55,-0.0264883917883199
2.555,-0.0266353355333345
2.56,-0.0267833659369042
2.565,-0.0269324912352245
2.57,-0.0270827197179695
2.575,-0.0272340597285883
2.58,-0.0273865196645755
2.585,-0.0275401079777638
2.59,-0.0276948331745963
2.595,-0.0278507038164253
2.6,-0.0280077285197991
2.605,-0.0281659159567638
2.61,-0.0283252748551515
2.615,-0.0284858139988808
2.62,-0.0286475422282692
2.625,-0.0288104684403242
2.63,-0.02897460158907
2.635,-0.0291399506858384
2.64,-0.0293065247995941
2.645,-0.029474333057253
2.65,-0.0296433846439945
2.655,-0.0298136888035941
2.66,-0.0299852548387283
2.665,-0.0301580921113306
2.67,-0.0303322100428966
2.675,-0.0305076181148334
2.68,-0.0306843258687856
2.685,-0.0308623429069862
2.69,-0.0310416788925831
2.695,-0.0312223435499977
2.7,-0.0314043466652601
2.705,-0.0315876980863717
2.71,-0.0317724077236485
2.715,-0.0319584855500754
2.72,-0.0321459416016738
2.725,-0.0323347859778601
2.73,-0.0325250288418061
2.735,-0.032716680420802
2.74,-0.0329097510066408
2.745,-0.0331042509559783
2.75,-0.033300190690707
2.755,-0.0334975806983459
2.76,-0.0336964315324174
2.765,-0.033896753812822
2.77,-0.0340985582262293
2.775,-0.0343018555264789
2.78,-0.0345066565349612
2.785,-0.0347129721410113
2.79,-0.0349208133023131
2.795,-0.0351301910452963
2.8,-0.0353411164655465
2.805,-0.0355536007282058
2.81,-0.0357676550683796
2.815,-0.0359832907915574
2.82,-0.0362005192740188
2.825,-0.0364193519632651
2.83,-0.0366398003784226
2.835,-0.0368618761106793
2.84,-0.0370855908237102
2.845,-0.0373109562541023
2.85,-0.0375379842117902
2.855,-0.0377666865804903
2.86,-0.0379970753181395
2.865,-0.0382291624573397
2.87,-0.0384629601057971
2.875,-0.0386984804467726
2.88,-0.038935735739529
2.885,-0.0391747383197877
2.89,-0.0394155006001829
2.895,-0.0396580350707169
2.9,-0.0399023542992351
2.905,-0.0401484709318729
2.91,-0.0403963976935309
2.915,-0.0406461473883525
2.92,-0.0408977329001894
2.925,-0.0411511671930841
2.93,-0.0414064633117383
2.935,-0.0416636343820114
2.94,-0.0419226936113987
2.945,-0.0421836542895166
2.95,-0.0424465297885927
2.955,-0.0427113335639791
2.96,-0.0429780791546274
2.965,-0.043246780183595
2.97,-0.0435174503585685
2.975,-0.0437901034723342
2.98,-0.0440647534033252
2.985,-0.0443414141161094
2.99,-0.0446200996619129
2.995,-0.0449008241791456
3,-0.0451836018939125
