"Freq [GHz]","dB(S(ground_T1,ground_T1)) []"
2,-0.0169706178929251
2.005,-0.0170896601678517
2.01,-0.0172098960332532
2.015,-0.0173313401536512
2.02,-0.0174540075002676
2.025,-0.0175779133562503
2.03,-0.0177030733219674
2.035,-0.0178295033204736
2.04,-0.0179572196031219
2.045,-0.018086238755301
2.05,-0.0182165777023318
2.055,-0.0183482537155147
2.06,-0.018481284418352
2.065,-0.0186156877929104
2.07,-0.0187514821863645
2.075,-0.0188886863177077
2.08,-0.0190273192846584
2.085,-0.0191674005707275
2.09,-0.0193089500524868
2.095,-0.0194519880070404
2.1,-0.0195965351196807
2.105,-0.0197426124917837
2.11,-0.0198902416488636
2.115,-0.0200394445489227
2.12,-0.0201902435909749
2.125,-0.0203426616238136
2.13,-0.0204967219550582
2.135,-0.0206524483604063
2.14,-0.0208098650931834
2.145,-0.0209689968941423
2.15,-0.0211298690015428
2.155,-0.0212925071615268
2.16,-0.0214569376387911
2.165,-0.0216231872275488
2.17,-0.0217912832628369
2.175,-0.0219612536321356
2.18,-0.0221331267873256
2.185,-0.0223069317570156
2.19,-0.0224826981592176
2.195,-0.0226604562143976
2.2,-0.0228402367589404
2.205,-0.0230220712589957
2.21,-0.0232059918247542
2.215,-0.0233920312251579
2.22,-0.0235802229030532
2.225,-0.0237706009908385
2.23,-0.0239632003265417
2.235,-0.0241580564704771
2.24,-0.0243552057223357
2.245,-0.0245546851389008
2.25,-0.0247565325522486
2.255,-0.0249607865885939
2.26,-0.0251674866876949
2.265,-0.0253766731229174
2.27,-0.0255883870219139
2.275,-0.0258026703880284
2.28,-0.0260195661223495
2.285,-0.026239118046544
2.29,-0.0264613709264176
2.295,-0.0266863704962726
2.3,-0.0269141634840895
2.305,-0.0271447976375685
2.31,-0.0273783217510394
2.315,-0.0276147856933175
2.32,-0.0278542404365128
2.325,-0.0280967380858241
2.33,-0.0283423319104118
2.335,-0.028591076375316
2.34,-0.0288430271745402
2.345,-0.0290982412652798
2.35,-0.029356776903407
2.355,-0.0296186936802197
2.36,-0.0298840525605286
2.365,-0.0301529159221349
2.37,-0.0304253475967605
2.375,-0.0307014129124946
2.38,-0.0309811787378102
2.385,-0.0312647135272448
2.39,-0.031552087368788
2.395,-0.0318433720330893
2.4,-0.0321386410245098
2.405,-0.0324379696341765
2.41,-0.0327414349950638
2.415,-0.033049116139218
2.42,-0.0333610940572387
2.425,-0.0336774517600924
2.43,-0.0339982743433913
2.435,-0.0343236490542284
2.44,-0.0346536653607015
2.445,-0.0349884150242617
2.45,-0.0353279921749942
2.455,-0.0356724933899882
2.46,-0.0360220177749534
2.465,-0.0363766670492125
2.47,-0.0367365456342443
2.475,-0.0371017607459691
2.48,-0.0374724224909298
2.485,-0.0378486439665723
2.49,-0.0382305413658471
2.495,-0.0386182340863112
2.5,-0.0390118448439811
2.505,-0.0394114997921787
2.51,-0.0398173286456074
2.515,-0.040229464809934
2.52,-0.0406480455171593
2.525,-0.0410732119670883
2.53,-0.0415051094751833
2.535,-0.0419438876271793
2.54,-0.0423897004407759
2.545,-0.0428427065348184
2.55,-0.0433030693063388
2.555,-0.0437709571158865
2.56,-0.0442465434816158
2.565,-0.0447300072825662
2.57,-0.0452215329716978
2.575,-0.0457213107991438
2.58,-0.0462295370463306
2.585,-0.0467464142714973
2.59,-0.0472721515672996
2.595,-0.0478069648311734
2.6,-0.0483510770491878
2.605,-0.0489047185941329
2.61,-0.0494681275387095
2.615,-0.0500415499846593
2.62,-0.0506252404088072
2.625,-0.0512194620269599
2.63,-0.0518244871767715
2.635,-0.0524405977206923
2.64,-0.0530680854701806
2.645,-0.0537072526325269
2.65,-0.0543584122816011
2.655,-0.0550218888540496
2.66,-0.0556980186724939
2.665,-0.0563871504974047
2.67,-0.0570896461094771
2.675,-0.057805880924414
2.68,-0.0585362446422142
2.685,-0.0592811419331368
2.69,-0.0600409931627619
2.695,-0.0608162351586618
2.7,-0.0616073220214442
2.705,-0.0624147259830729
2.71,-0.0632389383156588
2.715,-0.064080470294068
2.72,-0.0649398542160626
2.725,-0.0658176444838066
2.73,-0.0667144187510549
2.735,-0.0676307791405434
2.74,-0.0685673535364578
2.745,-0.0695247969573697
2.75,-0.0705037930152295
2.755,-0.0715050554667225
2.76,-0.072529329863577
2.765,-0.0735773953090543
2.77,-0.0746500663284462
2.775,-0.0757481948620296
2.78,-0.0768726723896229
2.785,-0.0780244321966745
2.79,-0.0792044517926709
2.795,-0.0804137554935444
2.8,-0.0816534171807794
2.805,-0.0829245632510297
2.81,-0.0842283757713146
2.815,-0.0855660958560396
2.82,-0.0869390272838245
2.825,-0.0883485403734264
2.83,-0.0897960761400481
2.835,-0.0912831507551769
2.84,-0.0928113603352462
2.845,-0.0943823860868501
2.85,-0.0959979998387629
2.855,-0.0976600699940582
2.86,-0.0993705679386915
2.865,-0.101131574946537
2.87,-0.102945289624864
2.875,-0.104814035948436
2.88,-0.106740271935531
2.885,-0.108726599024317
2.89,-0.110775772214269
2.895,-0.112890711043825
2.9,-0.115074511483121
2.905,-0.11733045882886
2.91,-0.119662041697805
2.915,-0.122072967225791
2.92,-0.124567177590883
2.925,-0.127148867992449
2.93,-0.12982250623265
2.935,-0.132592854063555
2.94,-0.135464990481613
2.945,-0.138444337172501
2.95,-0.141536686333023
2.955,-0.144748231123739
2.96,-0.148085599036418
2.965,-0.151555888495016
2.97,-0.155166709048035
2.975,-0.158926225554788
2.98,-0.162843206818751
2.985,-0.166927079179222
2.99,-0.171187985638494
2.995,-0.175636851177429
3,-0.180285454999006
