"Freq [GHz]","dB(S(ground_T1,ground_T1)) []"
2,-0.0198103846238286
2.005,-0.0199882812563646
2.01,-0.0201693528187399
2.015,-0.0203536117865281
2.02,-0.0205410716485803
2.025,-0.0207317469253547
2.03,-0.0209256531878326
2.035,-0.0211228070771588
2.04,-0.0213232263249679
2.045,-0.0215269297744133
2.05,-0.021733937401969
2.055,-0.0219442703399614
2.06,-0.0221579508999175
2.065,-0.0223750025967002
2.07,-0.0225954501734999
2.075,-0.0228193196276859
2.08,-0.0230466382375321
2.085,-0.0232774345899002
2.09,-0.0235117386088256
2.095,-0.0237495815851253
2.1,-0.0239909962070075
2.105,-0.0242360165917108
2.11,-0.0244846783182568
2.115,-0.024737018461295
2.12,-0.0249930756261244
2.125,-0.0252528899849082
2.13,-0.0255165033141163
2.135,-0.0257839590332612
2.14,-0.0260553022449676
2.145,-0.0263305797763841
2.15,-0.026609840222063
2.155,-0.0268931339882705
2.16,-0.0271805133388547
2.165,-0.0274720324426699
2.17,-0.0277677474226603
2.175,-0.0280677164066342
2.18,-0.0283719995797898
2.185,-0.0286806592390901
2.19,-0.0289937598495205
2.195,-0.0293113681022948
2.2,-0.029633552975149
2.205,-0.029960385794707
2.21,-0.0302919403010576
2.215,-0.0306282927146401
2.22,-0.0309695218054735
2.225,-0.0313157089648584
2.23,-0.031666938279638
2.235,-0.0320232966091459
2.24,-0.0323848736648781
2.245,-0.0327517620930747
2.25,-0.0331240575602889
2.255,-0.0335018588420617
2.26,-0.0338852679148434
2.265,-0.034274390051289
2.27,-0.0346693339190586
2.275,-0.0350702116832742
2.28,-0.0354771391127847
2.285,-0.0358902356904091
2.29,-0.0363096247272836
2.295,-0.0367354334815453
2.3,-0.0371677932814898
2.305,-0.0376068396534119
2.31,-0.0380527124543383
2.315,-0.0385055560098409
2.32,-0.0389655192571818
2.325,-0.0394327558939771
2.33,-0.0399074245326971
2.335,-0.040389688861176
2.34,-0.0408797178094473
2.345,-0.0413776857231947
2.35,-0.041883772544082
2.355,-0.0423981639973018
2.36,-0.0429210517866627
2.365,-0.0434526337975475
2.37,-0.0439931143081392
2.375,-0.0445427042092583
2.38,-0.0451016212332442
2.385,-0.0456700901922816
2.39,-0.0462483432266458
2.395,-0.0468366200633058
2.4,-0.0474351682854107
2.405,-0.0480442436131577
2.41,-0.0486641101966228
2.415,-0.0492950409210964
2.42,-0.0499373177255707
2.425,-0.0505912319350387
2.43,-0.0512570846072187
2.435,-0.0519351868945279
2.44,-0.0526258604219761
2.445,-0.0533294376818799
2.45,-0.0540462624461406
2.455,-0.054776690197105
2.46,-0.0555210885778743
2.465,-0.0562798378631377
2.47,-0.0570533314515573
2.475,-0.0578419763808667
2.48,-0.0586461938668705
2.485,-0.0594664198676384
2.49,-0.0603031056742383
2.495,-0.0611567185294207
2.5,-0.0620277422758297
2.505,-0.0629166780352987
2.51,-0.0638240449209997
2.515,-0.0647503807842396
2.52,-0.0656962429978505
2.525,-0.066662209278249
2.53,-0.067648878548347
2.535,-0.0686568718436598
2.54,-0.0696868332640834
2.545,-0.0707394309740316
2.55,-0.0718153582536906
2.555,-0.0729153346044995
2.56,-0.0740401069119457
2.565,-0.0751904506692278
2.57,-0.0763671712653825
2.575,-0.0775711053417635
2.58,-0.0788031222211277
2.585,-0.0800641254137393
2.59,-0.0813550542052859
2.595,-0.082676885331736
2.6,-0.0840306347466106
2.605,-0.0854173594865418
2.61,-0.0868381596414211
2.615,-0.08829418043587
2.62,-0.0897866144292907
2.625,-0.0913167038422857
2.63,-0.0928857430177861
2.635,-0.0944950810258873
2.64,-0.096146124422031
2.645,-0.0978403401689743
2.65,-0.0995792587336823
2.655,-0.101364477371291
2.66,-0.10319766360906
2.665,-0.105080558944394
2.67,-0.107014982772093
2.675,-0.109002836557149
2.68,-0.111046108270807
2.685,-0.113146877108986
2.69,-0.115307318513804
2.695,-0.117529709520552
2.7,-0.119816434454498
2.705,-0.122169991003797
2.71,-0.124592996697155
2.715,-0.127088195817251
2.72,-0.129658466783744
2.725,-0.132306830042522
2.73,-0.135036456501197
2.735,-0.137850676554365
2.74,-0.140752989746149
2.745,-0.143747075121758
2.75,-0.146836802324698
2.755,-0.150026243501411
2.76,-0.153319686080992
2.765,-0.156721646504035
2.77,-0.160236884981719
2.775,-0.163870421374133
2.78,-0.167627552285523
2.785,-0.171513869483801
2.79,-0.175535279762363
2.795,-0.179698026374164
2.8,-0.184008712181279
2.805,-0.188474324677943
2.81,-0.193102263061458
2.815,-0.197900367543818
2.82,-0.20287695111741
2.825,-0.208040834011098
2.83,-0.213401381098809
2.835,-0.218968542551532
2.84,-0.224752898056201
2.845,-0.230765704961237
2.85,-0.237018950749713
2.855,-0.243525410287327
2.86,-0.250298708344596
2.865,-0.257353387951829
2.87,-0.264704985212109
2.875,-0.272370111273501
2.88,-0.280366542247494
2.885,-0.288713317958605
2.89,-0.29743085052128
2.895,-0.306541043867196
2.9,-0.316067425490991
2.905,-0.326035291848126
2.91,-0.336471869028627
2.915,-0.347406490548246
2.92,-0.3588707943491
2.925,-0.370898941390244
2.93,-0.383527858541226
2.935,-0.396797508876019
2.94,-0.410751192909581
2.945,-0.4254358848352
2.95,-0.440902608420113
2.955,-0.457206857914676
2.96,-0.474409070144093
2.965,-0.492575154902703
2.97,-0.511777091884547
2.975,-0.532093603690666
2.98,-0.5536109159903
2.985,-0.576423617723961
2.99,-0.600635636374897
2.995,-0.626361345866736
3,-0.653726827647659
