"Freq [GHz]","dB(S(ground_T1,ground_T1)) []"
2,-0.0290714949118786
2.005,-0.0294009705533086
2.01,-0.0297427809670154
2.015,-0.0300967709028147
2.02,-0.0304627961413525
2.025,-0.0308407236270114
2.03,-0.0312304315763567
2.035,-0.0316318095665781
2.04,-0.0320447586079154
2.045,-0.0324691912034668
2.05,-0.0329050313994803
2.055,-0.0333522148288002
2.06,-0.0338106887498576
2.065,-0.0342804120833204
2.07,-0.0347613554482926
2.075,-0.0352535011997238
2.08,-0.0357568434685681
2.085,-0.0362713882060097
2.09,-0.0367971532330167
2.095,-0.0373341682963272
2.1,-0.0378824751318989
2.105,-0.0384421275367478
2.11,-0.0390131914500909
2.115,-0.0395957450446028
2.12,-0.0401898788285657
2.125,-0.0407956957596884
2.13,-0.0414133113712763
2.135,-0.0420428539115253
2.14,-0.0426844644965714
2.145,-0.0433382972780545
2.15,-0.044004519625838
2.155,-0.0446833123266298
2.16,-0.0453748697992037
2.165,-0.04607940032698
2.17,-0.0467971263086957
2.175,-0.0475282845279816
2.18,-0.0482731264426557
2.185,-0.0490319184946023
2.19,-0.0498049424411162
2.195,-0.0505924957086955
2.2,-0.051394891770253
2.205,-0.0522124605468176
2.21,-0.0530455488348307
2.215,-0.0538945207602362
2.22,-0.0547597582605982
2.225,-0.0556416615966048
2.23,-0.0565406498943461
2.235,-0.0574571617198728
2.24,-0.0583916556876563
2.245,-0.0593446111046326
2.25,-0.0603165286516364
2.255,-0.0613079311041663
2.26,-0.0623193640945469
2.265,-0.0633513969176494
2.27,-0.0644046233825243
2.275,-0.0654796627124749
2.28,-0.0665771604961263
2.285,-0.0676977896924682
2.29,-0.0688422516927932
2.295,-0.070011277442821
2.3,-0.0712056286284355
2.305,-0.0724260989287967
2.31,-0.0736735153406878
2.315,-0.0749487395784158
2.32,-0.0762526695537324
2.325,-0.0775862409406517
2.33,-0.0789504288303514
2.335,-0.0803462494817015
2.34,-0.0817747621733972
2.345,-0.0832370711640891
2.35,-0.0847343277673413
2.355,-0.0862677325488288
2.36,-0.0878385376536009
2.365,-0.0894480492719875
2.37,-0.0910976302531941
2.375,-0.0927887028764645
2.38,-0.0945227517903413
2.385,-0.096301327131375
2.39,-0.0981260478345754
2.395,-0.0999986051487618
2.4,-0.101920766371055
2.405,-0.103894378815886
2.41,-0.105921374035069
2.415,-0.108003772306847
2.42,-0.110143687413313
2.425,-0.112343331727062
2.43,-0.114605021629805
2.435,-0.116931183287408
2.44,-0.119324358808028
2.445,-0.121787212812052
2.45,-0.124322539445262
2.455,-0.126933269869048
2.46,-0.129622480264688
2.465,-0.132393400391729
2.47,-0.135249422744209
2.475,-0.138194112352202
2.48,-0.14123121728053
2.485,-0.144364679881137
2.49,-0.147598648860783
2.495,-0.150937492231432
2.5,-0.154385811216933
2.505,-0.157948455196562
2.51,-0.161630537773637
2.515,-0.1654374540658
2.52,-0.169374899323035
2.525,-0.17344888898971
2.53,-0.17766578033855
2.535,-0.182032295817083
2.54,-0.186555548261319
2.545,-0.191243068147155
2.55,-0.196102833067459
2.555,-0.201143299642425
2.56,-0.206373438092414
2.565,-0.211802769726905
2.57,-0.217441407630316
2.575,-0.223300100855822
2.58,-0.229390282472398
2.585,-0.23572412184843
2.59,-0.24231458159821
2.595,-0.24917547966567
2.6,-0.256321557074101
2.605,-0.263768551931566
2.61,-0.271533280350746
2.615,-0.279633725019724
2.62,-0.288089132248343
2.625,-0.296920118414392
2.63,-0.30614878684701
2.635,-0.315798856312939
2.64,-0.325895802417279
2.645,-0.336467013396391
2.65,-0.347541961970042
2.655,-0.359152395135932
2.66,-0.371332544036958
2.665,-0.384119356314287
2.67,-0.397552753683714
2.675,-0.411675917845036
2.68,-0.426535608262222
2.685,-0.442182515845127
2.69,-0.45867165713199
2.695,-0.476062814228417
2.7,-0.494421026518118
2.705,-0.513817141040518
2.71,-0.534328429451237
2.715,-0.556039280667927
2.72,-0.579041979684822
2.725,-0.603437584649166
2.73,-0.629336916172323
2.735,-0.656861675046271
2.74,-0.686145707110656
2.745,-0.71733643703561
2.75,-0.750596496333924
2.755,-0.786105575091938
2.76,-0.824062531830442
2.765,-0.864687801717578
2.77,-0.908226150226907
2.775,-0.954949827472636
2.78,-1.00516218811081
2.785,-1.05920185317446
2.79,-1.11744750388233
2.795,-1.18032341377867
2.8,-1.24830584508402
2.805,-1.32193045855803
2.81,-1.4018009143626
2.815,-1.48859887546924
2.82,-1.58309566649091
2.825,-1.68616589128067
2.83,-1.79880337467745
2.835,-1.92213987070647
2.84,-2.05746707593883
2.845,-2.20626260902546
2.85,-2.37022077489155
2.855,-2.55128913818783
2.86,-2.75171220526187
2.865,-2.97408388686768
2.87,-3.22141092972344
2.875,-3.49719023101047
2.88,-3.80550398651517
2.885,-4.15113811886627
2.89,-4.53973160036095
2.895,-4.9779674129796
2.9,-5.47382031095887
2.905,-6.03688248508069
2.91,-6.67879515796878
2.915,-7.41381878321055
2.92,-8.25956420513668
2.925,-9.23783796671839
2.93,-10.3752774982584
2.935,-11.7024493146896
2.94,-13.2465413204166
2.945,-15.0006650673333
2.95,-16.8191944715906
2.955,-18.1837565946415
2.96,-18.2631200997026
2.965,-17.0058909010331
2.97,-15.2290474973978
2.975,-13.4905837453364
2.98,-11.9561802140449
2.985,-10.6382986761381
2.99,-9.51062409540866
2.995,-8.54229174956797
3,-7.70619928993211
