"Freq [GHz]","dB(S(ground_T1,ground_T1)) []"
2,-0.0145100641082531
2.005,-0.0145781577243385
2.01,-0.0146465987202889
2.015,-0.0147154020502111
2.02,-0.0147845825522999
2.025,-0.0148541549501999
2.03,-0.0149241338543924
2.035,-0.0149945337635567
2.04,-0.0150653690659416
2.045,-0.0151366540407482
2.05,-0.0152084028594918
2.055,-0.0152806295874051
2.06,-0.015353348184784
2.065,-0.0154265725084095
2.07,-0.0155003163129226
2.075,-0.0155745932522141
2.08,-0.0156494168808623
2.085,-0.0157248006555042
2.09,-0.0158007579362823
2.095,-0.0158773019882758
2.1,-0.0159544459829293
2.105,-0.0160322029995111
2.11,-0.0161105860265777
2.115,-0.016189607963454
2.12,-0.0162692816217088
2.125,-0.0163496197266834
2.13,-0.0164306349189893
2.135,-0.0165123397560702
2.14,-0.016594746713729
2.145,-0.0166778681877214
2.15,-0.0167617164953515
2.155,-0.0168463038770663
2.16,-0.0169316424981104
2.165,-0.0170177444501691
2.17,-0.0171046217530652
2.175,-0.0171922863564561
2.18,-0.0172807501415581
2.185,-0.0173700249229269
2.19,-0.0174601224502274
2.195,-0.0175510544100601
2.2,-0.0176428324278009
2.205,-0.0177354680694877
2.21,-0.0178289728437295
2.215,-0.0179233582036516
2.22,-0.0180186355488839
2.225,-0.0181148162275647
2.23,-0.0182119115384253
2.235,-0.0183099327328556
2.24,-0.0184088910170653
2.245,-0.0185087975542515
2.25,-0.0186096634668279
2.255,-0.0187114998386982
2.26,-0.018814317717567
2.265,-0.0189181281173062
2.27,-0.019022942020374
2.275,-0.0191287703802795
2.28,-0.0192356241241032
2.285,-0.0193435141550735
2.29,-0.0194524513552001
2.295,-0.0195624465879708
2.3,-0.0196735107010926
2.305,-0.019785654529313
2.31,-0.0198988888973089
2.315,-0.0200132246226024
2.32,-0.0201286725186138
2.325,-0.020245243397713
2.33,-0.0203629480744016
2.335,-0.0204817973685221
2.34,-0.0206018021085766
2.345,-0.0207229731351257
2.35,-0.0208453213042364
2.355,-0.0209688574910452
2.36,-0.0210935925934036
2.365,-0.0212195375356014
2.37,-0.0213467032721808
2.375,-0.0214751007918543
2.38,-0.021604741121522
2.385,-0.0217356353303724
2.39,-0.0218677945341027
2.395,-0.022001229899226
2.4,-0.0221359526475104
2.405,-0.0222719740605065
2.41,-0.022409305484208
2.415,-0.0225479583338096
2.42,-0.0226879440986094
2.425,-0.0228292743470189
2.43,-0.0229719607317017
2.435,-0.0231160149948567
2.44,-0.0232614489736291
2.445,-0.02340827460564
2.45,-0.023556503934699
2.455,-0.0237061491166342
2.46,-0.0238572224252765
2.465,-0.0240097362586106
2.47,-0.024163703145072
2.475,-0.0243191357500149
2.48,-0.0244760468823542
2.485,-0.0246344495013582
2.49,-0.0247943567236476
2.495,-0.0249557818303529
2.5,-0.0251187382744777
2.505,-0.0252832396884419
2.51,-0.0254492998918284
2.515,-0.0256169328993312
2.52,-0.0257861529289131
2.525,-0.0259569744101856
2.53,-0.0261294119929893
2.535,-0.0263034805562296
2.54,-0.0264791952169177
2.545,-0.0266565713394737
2.55,-0.0268356245452552
2.555,-0.0270163707223664
2.56,-0.0271988260356852
2.565,-0.0273830069372085
2.57,-0.0275689301766261
2.575,-0.0277566128122056
2.58,-0.0279460722219529
2.585,-0.0281373261150815
2.59,-0.0283303925437766
2.595,-0.0285252899152726
2.6,-0.0287220370042796
2.605,-0.0289206529656951
2.61,-0.0291211573477072
2.615,-0.0293235701052148
2.62,-0.0295279116136197
2.625,-0.0297342026829943
2.63,-0.0299424645726221
2.635,-0.0301527190059278
2.64,-0.0303649881858244
2.645,-0.0305792948104586
2.65,-0.0307956620893871
2.655,-0.0310141137602019
2.66,-0.0312346741055749
2.665,-0.0314573679708014
2.67,-0.031682220781794
2.675,-0.0319092585635688
2.68,-0.0321385079592517
2.685,-0.0323699962495624
2.69,-0.0326037513728833
2.695,-0.0328398019458258
2.7,-0.0330781772843821
2.705,-0.0333189074256505
2.71,-0.033562023150157
2.715,-0.0338075560047814
2.72,-0.0340555383263236
2.725,-0.0343060032656866
2.73,-0.0345589848127767
2.735,-0.0348145178220199
2.74,-0.035072638038648
2.745,-0.0353333821256592
2.75,-0.0355967876915471
2.755,-0.0358628933187898
2.76,-0.036131738593116
2.765,-0.0364033641336083
2.77,-0.036677811623609
2.775,-0.0369551238424996
2.78,-0.037235344698369
2.785,-0.0375185192615762
2.79,-0.0378046937992509
2.795,-0.0380939158107675
2.8,-0.0383862340642041
2.805,-0.0386816986338014
2.81,-0.0389803609384984
2.815,-0.0392822737815481
2.82,-0.0395874913912027
2.825,-0.0398960694626097
2.83,-0.0402080652008197
2.835,-0.0405235373650554
2.84,-0.0408425463142087
2.845,-0.0411651540536199
2.85,-0.0414914242831978
2.855,-0.0418214224468816
2.86,-0.0421552157835275
2.865,-0.0424928733792248
2.87,-0.0428344662211217
2.875,-0.0431800672527539
2.88,-0.0435297514309808
2.885,-0.0438835957845431
2.89,-0.0442416794742898
2.895,-0.0446040838551298
2.9,-0.0449708925397865
2.905,-0.0453421914643481
2.91,-0.045718068955746
2.915,-0.0460986158011487
2.92,-0.0464839253193781
2.925,-0.0468740934343959
2.93,-0.047269218750902
2.935,-0.0476694026321489
2.94,-0.0480747492800097
2.945,-0.0484853658173805
2.95,-0.0489013623729707
2.955,-0.0493228521686174
2.96,-0.0497499516090993
2.965,-0.0501827803746265
2.97,-0.0506214615160293
2.975,-0.0510661215527447
2.98,-0.0515168905737105
2.985,-0.0519739023412136
2.99,-0.0524372943978216
2.995,-0.0529072081764956
3,-0.0533837891139404
